,Job ID,Stage-1 Processing Time,Stage-2 Processing Time,Stage-1 Machines,Stage-2 Machines,Due Time
1,1,5.344871321211491,5.883378799253512,1,1,18.720147213289266
2,2,9.889245856466976,1.775263676055836,1,1,17.007451222922242
3,3,6.694927566917866,8.360490422717245,1,1,16.085458074366866
4,4,5.488117801664537,7.570231109205867,1,1,16.66596904921125
5,5,9.115568424682106,8.06567049661249,1,1,21.350208350982108
6,6,8.750021731881485,4.251083962658269,1,1,14.381700578103748
7,7,3.3910447905666063,0.0,1,N/A,11.534154757060657
8,8,5.393324367063497,6.662294658611621,1,1,21.178526108056246
9,9,7.924536917054898,7.088677934813435,1,1,18.498720636294404
10,10,1.740100853454487,4.387006098202856,1,1,15.515689917644057
11,11,1.2460705836350205,2.381808281626858,1,1,16.07295841280512
12,12,0.907549652326809,8.578891398016179,1,1,14.380582872807206
13,13,0.4419506014551122,4.449076698458682,1,1,12.88209092652113
14,14,3.6373359874507685,3.4853290619994173,1,1,13.664216718103187
15,15,6.125362730705623,4.293066141064964,1,1,22.47333601849581
16,16,2.2194370961194454,3.6359520034914237,1,1,22.36099017924529
17,17,7.218991648371858,9.841286785244883,1,1,17.97095749718902
18,18,4.7181652610054625,0.0,1,N/A,15.914514804126608
19,19,6.448144736854815,0.0,1,N/A,17.294578511542042
20,20,3.710577847450062,0.6863271762814527,1,1,12.830337318693555
21,21,3.7698314962534862,5.496108641074185,1,1,21.14262111912209
22,22,2.0173703629820627,5.161716060893488,1,1,8.15012940543481
23,23,6.313719418782377,1.1090661122173273,1,1,15.71603385886262
24,24,9.557332910504769,0.0,1,N/A,22.845467488493618
25,25,5.328601987993329,6.868024310742008,1,1,14.097269587935973
26,26,9.018545199022782,0.0,1,N/A,17.785343023135013
27,27,1.8933933224212396,6.558163559794537,1,1,19.357839490041673
28,28,4.712502460371199,9.158233450682813,1,1,14.065704630066904
29,29,9.002944926678914,0.7230833704016681,1,1,11.000777248231529
30,30,3.6903994570516154,7.533399312979342,1,1,15.032290037426424
31,31,9.393824591641826,7.155210520487807,1,1,16.83385404363423
32,32,8.025854358441931,9.16156537526095,1,1,22.107619588126102
33,33,3.5293397528059733,4.007205511468532,1,1,17.905496511278336
34,34,0.9101479183331274,3.5291843821628466,1,1,17.595386762304543
35,35,6.23035151453228,3.289546105591894,1,1,19.28288247546508
36,36,3.6471149130037617,3.047708351735828,1,1,11.269964569446344
37,37,6.5023203249888955,9.180723460628876,1,1,21.170562528883806
38,38,9.008384744960395,3.35627818400128,1,1,14.42426355223376
39,39,0.7949639633305772,2.642317245896002,1,1,13.852863032134776
40,40,0.7151326254191281,7.039064280454071,1,1,13.370105928531608
41,41,3.5219119826842538,1.670965781357262,1,1,11.76768471874384
42,42,7.974946556008788,9.73592023005199,1,1,20.92935713865011
43,43,4.921836213848296,0.0,1,N/A,8.110583228701762
44,44,9.83131903101713,8.243025224068303,1,1,19.3056728966292
45,45,0.3749762068067364,9.31579165413176,1,1,12.511870172415557
46,46,8.640319302313836,0.538318567942524,1,1,20.288559431391228
47,47,4.36832967951852,6.8512707282908725,1,1,21.516248043560523
48,48,2.142779729464249,8.130919253727784,1,1,11.014223583721016
49,49,1.424969140839003,3.4795206347981433,1,1,11.275219227179118
50,50,0.9098803783151821,9.912765261896421,1,1,12.40225234245238
51,51,2.660594079831978,1.2068424703908032,1,1,8.93998680955178
52,52,9.686311974581086,1.506311768778471,1,1,19.627804418737366
53,53,7.838361380256815,3.6055735002625235,1,1,12.096594056151353
54,54,8.91358813467841,1.5539269234582398,1,1,11.160047428072318
55,55,3.567118572905418,0.0,1,N/A,19.24424346816737
56,56,7.048654869352723,4.407509080610929,1,1,15.976289760094122
57,57,3.261125882433208,9.34319241951581,1,1,20.065166174057172
58,58,3.521228662272362,6.207432369370904,1,1,15.181973970805746
59,59,4.896885838543667,0.22661455930193197,1,1,9.986165801051072
60,60,2.7558096064646453,6.222159741374361,1,1,9.928662106779043
61,61,3.2946480660877455,5.394489387890284,1,1,21.792641627085832
62,62,2.555342210950229,3.14914580811498,1,1,21.606458489395912
63,63,8.950865334095589,8.513382015929103,1,1,21.137171379328443
64,64,4.510166558602357,6.991177529690502,1,1,11.702448224549016
65,65,9.319693129761891,5.914827065707956,1,1,17.87807433264445
66,66,2.944960345016,0.0,1,N/A,19.432809140876728
67,67,3.4865841016854127,1.6777435473480729,1,1,5.2337455899890655
68,68,8.370352728342185,3.3323040654223366,1,1,20.503988364766577
69,69,2.9856733662875556,2.733680633800427,1,1,21.122032962736075
70,70,2.707591834417352,7.429665813930544,1,1,16.165596822605824
71,71,3.280252223852107,0.6925747975527385,1,1,22.633395315339655
72,72,1.582697324809793,0.0,1,N/A,23.58042331268095
73,73,6.331538733777346,2.644099960489019,1,1,12.308362908988745
74,74,0.3334259354597646,8.102290780895103,1,1,14.604529838509436
75,75,6.605700684128198,4.593264230415564,1,1,17.293146547648465
76,76,7.28309332170584,1.6412700086745302,1,1,12.86534221937686
77,77,3.684615590688123,5.646155927157177,1,1,17.146328824060593
78,78,6.3364099432131535,1.7388495179370445,1,1,19.714865291044696
79,79,5.861150680387897,8.41871543266368,1,1,21.030901599338648
80,80,8.742801810300103,5.341620694235983,1,1,18.86590299028987
81,81,6.13496936987289,3.4752703027074228,1,1,19.99966636290555
82,82,2.842307749046924,2.2856346350720758,1,1,13.265867760279114
83,83,5.864095535152183,5.068800031448191,1,1,16.444414399093056
84,84,6.183024496986564,0.0,1,N/A,20.635843603741222
85,85,2.3248639012549077,7.110939413849203,1,1,13.258627125260613
86,86,6.700624456611358,3.000734575617565,1,1,17.675651017239765
87,87,6.415605243808184,0.0,1,N/A,12.662951399129001
88,88,6.898700077873494,7.800694912923861,1,1,20.016252830150925
89,89,3.1390168331747983,1.450631487877777,1,1,19.625640394298735
90,90,3.0690161297447416,4.34193826457911,1,1,7.950889482751148
91,91,5.675262707441206,2.782299490355491,1,1,12.337135101734042
92,92,2.030271079931131,6.192782782206251,1,1,14.546586840621572
93,93,8.053645999406958,7.258356073284634,1,1,15.882096819565758
94,94,6.096136290548129,8.55429222846009,1,1,23.104855507298694
95,95,4.189524524079127,0.9858055632104312,1,1,13.588866387913079
96,96,6.54970281428195,7.623479642412715,1,1,16.487267331279
97,97,1.2165147231701767,7.63494526308413,1,1,10.820031820532039
98,98,5.0150532980701525,5.502078119852695,1,1,22.58496082270438
99,99,4.146175917743655,1.6650254731690861,1,1,12.821831843408702
100,100,9.883217502680576,1.4393109500315793,1,1,22.858216765831155
101,101,9.948089782839874,0.0,1,N/A,22.065472781989993
102,102,4.386515719025059,7.563969950840831,1,1,15.930874799012603
103,103,3.5084824507982617,9.524094549717667,1,1,20.280913061799676
104,104,1.9988366809842517,6.200602635841883,1,1,10.358970893144921
105,105,8.72841395745421,8.85877329947626,1,1,17.903620976477704
106,106,7.546440228706831,0.0,1,N/A,17.345149379085008
107,107,6.582152812867204,4.374219614942511,1,1,23.885266720590074
108,108,7.0918230615135505,9.274343375778827,1,1,21.869122090530578
109,109,8.759709720044077,2.872476713249962,1,1,19.668051493248356
110,110,5.492690965243488,4.930438809993469,1,1,11.399950438715342
111,111,0.9449727807308661,0.0,1,N/A,14.699691750061612
112,112,5.328183623402375,3.3348465156660123,1,1,18.334644888405172
113,113,1.7886303680706184,8.654091471024687,1,1,16.08814082319821
114,114,6.155806020408784,0.0,1,N/A,18.448073892806114
115,115,6.5752923959464376,7.517704978673725,1,1,14.708173428398705
116,116,1.1488918463783049,3.2801469116632562,1,1,22.35793745629993
117,117,2.4649135613625694,0.0,1,N/A,21.704224607026603
118,118,9.230950136034528,4.961409784986777,1,1,18.419205159355435
119,119,0.45253287004204945,4.814309299077037,1,1,10.305608789602232
120,120,4.444940829605345,5.436240546512758,1,1,22.12270515285165
121,121,4.939322440033319,4.407727330674195,1,1,18.07237048940209
122,122,3.1271729822058427,4.014136872398581,1,1,22.690800929871887
123,123,1.737683134078859,8.089672710998286,1,1,16.605292244944216
124,124,6.745737138942822,3.7757674877426126,1,1,18.31555623652722
125,125,7.066190345292041,4.206240932092175,1,1,17.8605445954098
126,126,8.52578863794328,1.5770475377165794,1,1,16.584705261640444
127,127,6.960743995076605,0.0,1,N/A,13.185314784481863
128,128,6.887123530825011,4.931261973348498,1,1,23.078758580772323
129,129,6.483297464300335,2.602644179719684,1,1,20.78269427276487
130,130,0.8273604462375206,1.4069855762279193,1,1,20.571115140536925
131,131,5.698468783356868,2.9959406933056187,1,1,10.15045845336264
132,132,2.2188299140016374,5.354388049843639,1,1,23.271627787159964
133,133,7.565198202007091,5.552108815947556,1,1,19.794408146785344
134,134,0.2976180870516998,7.40893275790171,1,1,7.970721257475427
135,135,4.926121478085987,1.3646561590699569,1,1,23.25580106896092
136,136,8.51434484567651,6.795946632335723,1,1,19.24363965082306
137,137,5.206891125511024,9.72654660742522,1,1,15.448234057304164
138,138,7.8319437769414035,4.481260383778535,1,1,13.311267315152772
139,139,9.721476628103545,7.3132759941889915,1,1,23.8733499168749
140,140,4.466583591822309,2.5440587241508537,1,1,8.363811795558174
141,141,4.76247251667411,2.3006362359520183,1,1,12.80521729441554
142,142,5.598095280722357,0.0,1,N/A,16.560994932606775
143,143,7.256009878418076,1.6975191885630714,1,1,21.43029890107259
144,144,3.0332195668398967,0.0,1,N/A,10.320862991149495
145,145,5.137533466885654,6.704407616764044,1,1,19.269710382892814
146,146,9.771052476529544,0.0,1,N/A,19.427732761937143
147,147,7.610095281930189,5.425805154794602,1,1,17.136972583152488
148,148,8.70908825908648,2.127964547553457,1,1,17.215209961663408
149,149,5.411321185756045,0.0,1,N/A,14.19565617637073
150,150,0.24930931559880798,4.936067718557729,1,1,20.587023986506356
151,151,5.506496203069707,5.461055281106405,1,1,19.22786713719922
152,152,3.4336808558332557,1.9267387462149332,1,1,18.893124796719654
153,153,4.176262918526658,0.1782878209707961,1,1,12.005128659150111
154,154,4.146724906591491,0.0,1,N/A,16.28627413557352
155,155,9.769483987856004,2.9142871692655046,1,1,15.354804074717507
156,156,3.6033071163566377,5.357567339001889,1,1,23.934548818477285
157,157,6.67935408834248,4.776536093046015,1,1,13.196634422300544
158,158,7.793236285885017,7.088330609548818,1,1,15.165599210393522
159,159,1.811471652651312,2.875231591661711,1,1,14.908718736149003
160,160,0.7554010684190005,0.4515811690608229,1,1,11.317536259942901
161,161,3.74550322764424,6.749646713677617,1,1,18.668698004008814
162,162,6.683015230538858,5.649001942565411,1,1,21.540018015963422
163,163,3.205441850212609,2.187355582591133,1,1,19.815668479065693
164,164,1.7367659917967226,0.0,1,N/A,10.409694305510529
165,165,9.501414121923583,0.4809617821925305,1,1,16.690333320133746
166,166,1.6632925063181347,1.922297216960589,1,1,14.141556785993835
167,167,9.664811399449484,6.1369429167366185,1,1,23.372629518029573
168,168,5.540923020719011,1.8328200539097805,1,1,13.954211092013889
169,169,4.539999597691338,8.177264346600284,1,1,21.90709475064801
170,170,0.1231857056432073,9.404894614639208,1,1,10.378400470550142
171,171,6.825637094895893,0.0,1,N/A,15.580261895024243
172,172,3.2092672213763063,1.1671476462495023,1,1,23.358924523082273
173,173,7.940318882122438,4.097971976281083,1,1,14.698121078025366
174,174,5.994385887339774,0.6041656202479229,1,1,13.786209806252732
175,175,5.82143882622349,5.3657672487590595,1,1,17.140908746093746
176,176,6.073422770408942,9.320881386640181,1,1,17.259478077026383
177,177,6.8909956286834255,0.09076756531551933,1,1,17.300160596572915
178,178,4.761079286228094,8.425936250235006,1,1,23.92179834731032
179,179,7.148623189015236,0.5528353098517635,1,1,21.21555159760412
180,180,1.1462780229088787,8.186369938465953,1,1,16.03867733406741
181,181,9.618484091059802,3.7349050979431944,1,1,20.118431072913594
182,182,9.310682770368444,0.0,1,N/A,17.24346332151414
183,183,9.326814371677298,3.6598809506182506,1,1,15.594434210726396
184,184,6.798044396605228,6.3640598865363796,1,1,19.126278455608485
185,185,6.952238207573823,9.672438114849461,1,1,17.625508196461592
186,186,1.4816470436664941,3.9653453013846973,1,1,21.223872090477897
187,187,3.8508383710116068,0.0,1,N/A,20.118903951775156
188,188,7.18213979267456,6.556681891357722,1,1,13.877207791875348
189,189,9.124277958031008,7.9079208900173725,1,1,23.892088632337817
190,190,0.5145216787823614,8.676786253467014,1,1,14.404890059891652
191,191,7.599013566876273,6.9025657704748555,1,1,15.238044132585667
192,192,9.852983603527377,8.03928042656607,1,1,19.931343912503717
193,193,8.3683458624072,1.445872795773152,1,1,17.62380832891356
194,194,9.13284912169318,0.0,1,N/A,16.22963139222833
195,195,6.904866247825802,0.6290625451623189,1,1,19.353979994217795
196,196,5.059985851488711,5.692234532642361,1,1,11.448085334589988
197,197,9.775384787061336,4.867760649152077,1,1,17.837897154501718
198,198,4.612180360182183,0.0,1,N/A,16.113443664625287
199,199,8.021653915952644,4.329949093702653,1,1,16.412684163286126
200,200,9.9890709385084,0.0,1,N/A,20.8609956133265
201,201,9.877975492885533,0.0,1,N/A,19.07864208301005
202,202,9.963552688069035,3.753292088500509,1,1,16.143970641067813
203,203,4.741960742438902,6.997328008220544,1,1,18.82949259033976
204,204,9.073412303620657,0.0,1,N/A,22.913928795925063
205,205,8.167757785235883,0.7767286172761256,1,1,22.039524372179613
206,206,5.9858708110509244,9.374734302302372,1,1,18.45249255172216
207,207,2.882160590187677,2.101371390976323,1,1,19.142242823126132
208,208,6.179459188380555,5.573663642775479,1,1,18.350322009695425
209,209,4.700615460272787,3.8500641793206523,1,1,14.235047196264485
210,210,1.4701142816699864,0.0,1,N/A,5.585318744689816
211,211,5.32652543630273,6.105389342492471,1,1,21.292241721005425
212,212,9.753662246746721,0.6413667557721914,1,1,21.554271423962
213,213,6.715851999730673,8.913682775188562,1,1,23.143063834307
214,214,0.22036270423760662,9.991040280507491,1,1,16.0000087277683
215,215,8.928409819437212,0.0,1,N/A,19.51064713882245
216,216,8.885081108567855,0.5010277094377391,1,1,16.812223075955373
217,217,1.8635506133199653,6.5424729309412495,1,1,18.976175663826222
218,218,2.5682892741706134,3.680010198432538,1,1,12.71287361078509
219,219,2.077374845273382,3.4776232075782754,1,1,8.687712742594897
220,220,5.523025038686149,0.5852750238705184,1,1,7.475536844494209
221,221,4.0375534613083195,0.0,1,N/A,7.807245893742246
222,222,5.309263158885199,8.768364567177247,1,1,21.02319276309589
223,223,8.200928257414722,0.0,1,N/A,19.038590849532227
224,224,2.011054858698672,5.131768427648011,1,1,10.525064288170942
225,225,0.9476775476122312,0.5640994013724576,1,1,8.002096949021483
226,226,9.438783455005295,2.961278539357343,1,1,18.752326958601145
227,227,5.033050304951527,8.22946752885001,1,1,22.38117798990922
228,228,9.88391922905635,3.6911290511804373,1,1,19.286861100432276
229,229,4.47332923983399,0.0,1,N/A,20.97014838047264
230,230,9.495084704958455,0.0,1,N/A,18.772495281227933
231,231,4.566258316339584,6.310947630114229,1,1,12.031621761744724
232,232,6.744665470266257,6.380631516094015,1,1,14.26838269785989
233,233,4.912550588672456,0.014031349739425103,1,1,16.40151087005923
234,234,4.45434142711488,8.507938491375954,1,1,15.874224323752864
235,235,5.901767355373045,4.715564887844011,1,1,21.8824640581007
236,236,7.657857404462235,8.795063467638965,1,1,23.340204664726432
237,237,7.065175474287483,6.264162518449041,1,1,22.2556688753308
238,238,1.5787240832603666,1.7276154436385294,1,1,19.069695949667356
239,239,8.801134920259964,0.0,1,N/A,17.345628527435025
240,240,1.8087236323369893,8.843485984149305,1,1,16.334502030850857
241,241,0.7296491783616466,4.796397491436519,1,1,22.417985994116837
242,242,7.83821871773232,1.4190530473204255,1,1,17.83906274799282
243,243,5.376906010388715,0.4721097029864363,1,1,14.997468258680202
244,244,8.797469389963082,1.8115383217125702,1,1,18.952125057294992
245,245,9.861055218259523,1.5593071030271233,1,1,13.368641207007771
246,246,5.88300564955513,8.401203633555658,1,1,15.476710737594958
247,247,5.870657225881157,5.088956750953891,1,1,19.08380337921331
248,248,8.092615013086517,6.424310652694522,1,1,20.244476396189075
249,249,3.0407113484961656,0.7561158836855741,1,1,18.485833794879284
250,250,0.32355962280542494,7.715559382025575,1,1,16.484685787698716
251,251,1.055355011208149,6.0677553110643885,1,1,12.409521782345797
252,252,7.5755533435487425,6.151430820635955,1,1,18.088971125999585
253,253,4.483509906171012,6.841342205130452,1,1,16.771141967662494
254,254,5.004087935184186,1.603174413527645,1,1,19.32310226209791
255,255,3.148518810965478,7.427432194249293,1,1,12.12800496273448
256,256,7.950126733091504,6.775965170654352,1,1,20.71445128903301
257,257,3.6610427121496656,8.21140046186191,1,1,19.933428427314173
258,258,9.665890157232012,3.898157379258266,1,1,16.781588113403565
259,259,3.0517793929260586,6.822083653044894,1,1,23.86180234043578
260,260,1.9796417394979493,1.5502300235034383,1,1,7.364933120839501
261,261,3.874203383693373,4.267716416830946,1,1,20.266746347139254
262,262,4.858211745681642,3.7313008876578593,1,1,9.268979321947212
263,263,0.012960807891360115,0.0,1,N/A,4.3959773795381185
264,264,2.419453316267534,5.4680560666517275,1,1,23.023384073938242
265,265,4.298778824276247,6.193050145204854,1,1,15.399195263112016
266,266,3.233440941826544,0.0,1,N/A,18.440116018514562
267,267,9.298230649978805,4.3379285885885555,1,1,13.767644329769478
268,268,0.07983985520705117,0.0,1,N/A,10.572560131213507
269,269,3.8460395370685143,0.0,1,N/A,19.208068708850707
270,270,7.969194302571529,8.594969454808517,1,1,19.51408827932362
271,271,9.868794242422625,7.849853529477016,1,1,19.953751465504084
272,272,0.0037792157098881507,6.999288987642246,1,1,8.813351172838587
273,273,0.9185655757529809,4.673105495927797,1,1,23.08346833591809
274,274,2.9777355914024595,5.680153055087185,1,1,12.798601483021642
275,275,5.629645419811141,3.2688031518752316,1,1,21.272555662481327
276,276,8.387739510853768,3.2946836692503165,1,1,18.428777991089074
277,277,2.000431298251466,1.4272383915829656,1,1,7.750528342050059
278,278,6.113023343164821,1.9872889995347853,1,1,12.229457056609576
279,279,3.4313916872728423,7.596470437672677,1,1,18.84913392255779
280,280,1.4407673816757505,0.0,1,N/A,20.178697316249224
281,281,9.533227020583114,7.3863459989113265,1,1,17.364563912640737
282,282,4.192035937349626,5.908348431942367,1,1,20.35782179450485
283,283,6.913195210382432,2.473117569330414,1,1,23.19325804820092
284,284,9.06184801930494,9.560914531184551,1,1,22.281971784409844
285,285,0.5318973518723158,4.41869038577968,1,1,8.691506584931073
286,286,6.182482342865806,2.9167044134874685,1,1,19.45212235542273
287,287,8.455252705910087,8.521346782210417,1,1,23.131479434718457
288,288,7.37052729941497,7.999104392155374,1,1,16.44889626482391
289,289,9.430890394974998,7.1521965130742515,1,1,21.89737429191355
290,290,6.042075186498429,0.0,1,N/A,21.232890544988496
291,291,7.9192848284835975,8.049002234192477,1,1,16.443210932415084
292,292,3.3488167314362793,5.911953394737232,1,1,21.582917188693095
293,293,5.9562496205604525,2.187058345446291,1,1,22.594801854961332
294,294,2.1940907694989367,2.4491580452852926,1,1,17.43398266318409
295,295,2.9744623918113655,0.0,1,N/A,16.883029751182264
296,296,9.04551207984227,0.0,1,N/A,23.816304197085593
297,297,7.548996844380628,5.858260172150657,1,1,14.6455786731304
298,298,4.973011197253703,2.509334447655347,1,1,13.902802027219268
299,299,6.213515137016187,6.309073212388293,1,1,12.546966610960052
300,300,7.703239372779345,6.985222885235522,1,1,19.805418378277523
301,301,4.725011111762783,2.3895959595836223,1,1,15.538605765852466
302,302,8.924693524129216,8.05078038461783,1,1,19.132747187513502
303,303,7.713407038665261,0.36155907140953625,1,1,20.96091378733496
304,304,9.02318929381765,4.0516280824393895,1,1,13.890019101687244
305,305,7.6580529450489205,0.0,1,N/A,13.642032059075877
306,306,9.202847633116408,0.0,1,N/A,18.859507503749153
307,307,5.265149077204701,2.5255094454881624,1,1,20.550303090130296
308,308,5.26474630541789,3.8811800767733615,1,1,19.512611435476593
