,Job ID,Stage-1 Processing Time,Stage-2 Processing Time,Stage-1 Machines,Stage-2 Machines,Due Time
1,1,9.311208684726413,0.0,1,N/A,18.783264869139302
2,2,7.8444967456334025,7.476339918117359,1,1,17.454994585574774
3,3,7.068491953337984,9.921294217689681,1,1,19.19268483124126
4,4,8.879164273007339,3.703172968578893,1,1,19.536408857798456
5,5,4.295069231241903,6.6345460168831085,1,1,11.752487165846862
6,6,9.961772468681557,0.0,1,N/A,19.20648387426884
7,7,9.320181845791605,2.0770973907699397,1,1,12.273240488395947
8,8,6.254314739133679,7.586559349058316,1,1,20.694496399047008
9,9,5.515526267482159,9.459582938070014,1,1,19.807619846096028
10,10,1.0587118757554115,2.695959723098081,1,1,16.31823510649356
11,11,8.447946039544403,2.9633984322438742,1,1,21.496903755808397
12,12,9.463938645878374,1.148131164265641,1,1,19.614952221699966
13,13,3.2251705623894464,2.831330000910608,1,1,7.550021903286986
14,14,7.445585993143462,8.643007863473,1,1,16.22277320652659
15,15,2.9969985393996366,0.0,1,N/A,22.21448199639989
16,16,0.1858126864301124,0.0,1,N/A,22.370891648870227
17,17,8.026600907680944,4.43378072311398,1,1,17.201955215761068
18,18,8.608727660237907,4.962805901893901,1,1,19.655343425827052
19,19,5.65998301233876,5.816395813529582,1,1,20.806173458973383
20,20,4.410407650193946,1.8498174988460647,1,1,12.337243323415326
21,21,5.952593837054637,9.505760698832793,1,1,20.99525627080179
22,22,9.384090398893761,0.30230681928192227,1,1,18.938916497822323
23,23,3.190377739030267,6.443839560074148,1,1,12.899680556918305
24,24,6.6606441565932855,9.007094032787954,1,1,23.396309647278237
25,25,6.536394640157447,0.6713001442251187,1,1,21.10738561790731
26,26,1.148168890106791,0.0,1,N/A,12.490931817078469
27,27,0.9222074306602124,7.004991677480622,1,1,16.758753313938527
28,28,3.1427020375860435,8.361382533989758,1,1,18.91794333290188
29,29,1.0797466115885601,1.9052564522569027,1,1,18.815301853629364
30,30,5.515645927809132,4.923996782861146,1,1,21.08133917347461
31,31,2.960026802856107,7.263635464084199,1,1,22.4387010092564
32,32,8.718735120148864,2.9906111809565816,1,1,13.074790958291603
33,33,8.308301762491595,0.0,1,N/A,15.852018379570147
34,34,0.29230961278270184,6.921957914298967,1,1,16.23846698591001
35,35,3.569337139580976,0.0,1,N/A,20.06144994287378
36,36,2.054894258695259,3.8732613228807233,1,1,10.361595931868283
37,37,7.047359669689111,1.952593221886736,1,1,18.597109168638173
38,38,6.508642377453397,6.055744263250316,1,1,19.692256652103485
39,39,5.354500217939146,2.4611254729498633,1,1,19.984155676877513
40,40,6.829487701608345,0.0,1,N/A,18.981871675666802
41,41,6.165984234640472,0.0,1,N/A,11.574478040406868
42,42,7.801598378967692,4.502960118969579,1,1,14.68828968453454
43,43,1.9467458512910385,4.4425535917786485,1,1,16.09579324155248
44,44,8.414243684293309,9.712698522354428,1,1,19.553746143471454
45,45,0.9809771946960999,0.0,1,N/A,10.321960017804887
46,46,9.512431975294126,8.504765901623088,1,1,19.44234192677055
47,47,9.24163766052617,6.744400834815547,1,1,18.369669570108908
48,48,7.2986531078939345,0.07542823223760209,1,1,9.518723821946944
49,49,4.87038150350751,6.8797776622887055,1,1,18.519077804118453
50,50,3.0637832597917427,4.20093510390471,1,1,7.594242035187528
51,51,1.1858768040969925,4.930999172913241,1,1,13.205040882903585
52,52,3.287600558369558,6.511919355363636,1,1,16.10572475257532
53,53,6.9949621398151205,2.8309070228218713,1,1,14.791554107486451
54,54,4.530246151958216,7.006128629357685,1,1,22.927475912783265
55,55,3.9640188014283604,7.524631766384314,1,1,21.162298260676117
56,56,7.205415553692439,0.0,1,N/A,16.397152191852413
57,57,9.619270857098478,0.0,1,N/A,21.03998122058506
58,58,2.3295048433631504,3.266815680002493,1,1,10.812809015782005
59,59,7.843678285475081,6.507625183204895,1,1,20.84661492280265
60,60,5.399170980913601,7.730033934477363,1,1,21.526736718049726
61,61,5.22369439617969,0.0,1,N/A,17.965233227670694
62,62,6.15647792094728,2.1380527456491016,1,1,22.86283062390027
63,63,5.732186896382649,5.119570312074442,1,1,21.381468846291853
64,64,6.777342047572443,5.504848647610256,1,1,12.429223760084595
65,65,8.17238747832062,0.0,1,N/A,12.08820947502389
66,66,9.75664413256861,5.7186653481279315,1,1,17.02494793027195
67,67,4.040295053641129,1.6552949737829148,1,1,22.309033530483518
68,68,5.970064136707826,2.47015727624719,1,1,11.964799019448527
69,69,0.797228075245221,4.1452459836998665,1,1,9.9887166891323
70,70,0.26063071113508585,5.680882531838117,1,1,17.771190908261786
71,71,1.743347864135737,0.0,1,N/A,9.972239435238262
72,72,3.788791711369993,9.723969564042399,1,1,19.16634269741577
73,73,6.750101511707351,0.0,1,N/A,17.784289555347335
74,74,0.19253613337285813,4.391023017257663,1,1,20.00070996100888
75,75,1.6102924085653925,6.140010871959386,1,1,20.08299399515713
76,76,2.9016136270611472,3.0305608348474697,1,1,10.286852746450784
77,77,7.297295404408606,5.797117160863598,1,1,15.493292575454635
78,78,8.717577770247026,0.44308128181793416,1,1,9.233154888611343
79,79,7.2503871447759005,0.0,1,N/A,16.151114747228295
80,80,6.626988037953279,3.692999077488958,1,1,14.139444908664148
81,81,0.49683078841233685,2.0037711654323207,1,1,20.993140554922597
82,82,8.180536376841562,0.0,1,N/A,23.758568710806593
83,83,9.087012556259811,3.7865114233884056,1,1,15.934577447457425
84,84,3.62635011353982,0.07043401618430534,1,1,7.56793177444769
85,85,3.278534042693427,9.303205630219855,1,1,18.035339644514572
86,86,4.103282507447411,1.6719431127579176,1,1,11.094945598604333
87,87,5.7943798552328305,2.9008976709310055,1,1,18.517531073769828
88,88,5.679284491850829,6.968860637433148,1,1,22.81368899575247
89,89,2.3973694655921762,7.206694275339637,1,1,21.2160339610664
90,90,6.149937948618903,0.0,1,N/A,22.905943801563534
91,91,0.5535969605116908,9.856411972640142,1,1,21.963742483339104
92,92,5.469297221461717,0.1574245876689473,1,1,15.471256314994456
93,93,6.65029918525589,3.230618691904732,1,1,9.996139133133976
94,94,4.929913149650485,5.349143140691869,1,1,22.828821590505832
95,95,0.9029546072773564,2.047462976753538,1,1,12.912428402961009
96,96,3.1607184134126474,5.595845192781594,1,1,19.664671056838706
97,97,6.402282341267059,9.491266557725837,1,1,16.330260819969745
98,98,1.6413658631795547,8.483201263091477,1,1,13.454402042137433
99,99,4.476904797054041,8.903896968825428,1,1,14.47989191834991
100,100,9.530609681720264,2.89482059466605,1,1,20.825532999026834
101,101,5.347948186061064,1.1970734790766113,1,1,22.9275073388343
102,102,0.31954324643684084,0.0,1,N/A,12.608742780738181
103,103,0.643199510749427,5.008146217659916,1,1,23.993684897027755
104,104,2.6101659092334852,6.129127350739262,1,1,12.877933113140923
105,105,1.5404208717989964,6.265643614351831,1,1,11.60514549168569
106,106,5.876962665990424,6.6544108909481725,1,1,21.877239157132855
107,107,1.3634839483383743,7.097963106253751,1,1,11.050913621279706
108,108,4.203472017523425,1.7763887503162978,1,1,23.651679545496663
109,109,4.772432459429849,2.844578381466496,1,1,16.470440980727624
110,110,4.724918174131437,2.626666533273819,1,1,9.293501890408056
111,111,5.905250501174568,3.044805277833853,1,1,13.180569347774277
112,112,9.93037843203809,9.57408288685025,1,1,21.07710453883629
113,113,5.1819372957059,2.2057665088984812,1,1,15.444771696455023
114,114,4.640147917217867,8.712839898927054,1,1,19.496295251248362
115,115,0.8659107693043278,0.9649054447817551,1,1,13.686925741545268
116,116,1.9773687284337338,3.812726065215306,1,1,13.859225934465847
117,117,5.872370531109845,8.693959045533914,1,1,22.789992818847303
118,118,0.4220047145627659,0.0,1,N/A,16.636148249752605
119,119,4.009148347161652,1.6346219861277078,1,1,23.203665204835996
120,120,3.2060863185382713,1.0108143849223172,1,1,19.447276218023728
121,121,1.638326042612731,0.0,1,N/A,14.703586111566786
122,122,7.560907878411766,7.331547894830393,1,1,16.71904902249573
123,123,1.6471254140909775,5.454779481320556,1,1,14.839839526326148
124,124,9.973013236337124,0.0,1,N/A,23.891179361348385
125,125,6.959356912733393,6.787070686751747,1,1,21.210568180361847
126,126,1.2674197735554416,2.01156021245417,1,1,13.787044099494386
127,127,8.955712814876293,0.0,1,N/A,17.716285197158857
128,128,3.2233522425719863,4.669002675645993,1,1,11.701770867233519
129,129,5.299244321127922,0.30741786835901785,1,1,5.823566723948491
130,130,6.003311938967689,0.0,1,N/A,13.654478965935084
131,131,2.5405593309734167,5.965650221745925,1,1,13.215985948102967
132,132,2.275561822213467,2.0204895353357966,1,1,22.05830065913652
133,133,6.201405500312128,0.0,1,N/A,17.212330445011958
134,134,9.137652880252086,7.700209394873534,1,1,18.436491358404524
135,135,5.11731816389731,0.0,1,N/A,16.495218693730177
136,136,5.353725723545365,9.250353685828419,1,1,22.95348294789596
137,137,4.102394587804628,5.967887568429477,1,1,16.678825225560175
138,138,7.463997804987893,0.08487252153495328,1,1,13.609002971666737
139,139,1.864872243843393,8.638860344823808,1,1,10.590138586696234
140,140,9.635821804335066,8.128159750925018,1,1,20.26290749773495
141,141,2.2088929056597326,2.2819343880168077,1,1,11.403997270850123
142,142,9.2403664363022,4.252566906362405,1,1,20.126220684672848
143,143,0.9536530182895719,7.993557324080021,1,1,10.37440491865152
144,144,1.3806481224118983,5.616551884869593,1,1,22.182955831292674
145,145,8.051916793189674,3.120683996814375,1,1,13.375029419142685
146,146,6.7794318374471585,8.172548991104453,1,1,16.654192794083325
147,147,4.364471003195522,0.0,1,N/A,16.58474992848456
148,148,7.273724390650724,1.3979068644605752,1,1,23.731619467505706
149,149,6.788736841608662,5.784173199083721,1,1,21.70918851459063
150,150,9.739759844396097,1.7059146948888848,1,1,20.27198307371621
151,151,1.6718406888371906,0.0,1,N/A,14.96199897974264
152,152,5.117878778554797,4.563236782623223,1,1,16.895266626572113
153,153,4.756493157981968,0.1289435441881126,1,1,5.780648613813092
154,154,1.0182161897703734,5.110657599566807,1,1,14.061505544825513
155,155,4.572162021506209,3.870062487627477,1,1,12.428562371406171
156,156,7.354111530759103,9.942471483436401,1,1,23.808477705851693
157,157,7.677543302194928,0.0,1,N/A,18.239976263557537
158,158,6.790988789481053,3.6825947729850164,1,1,10.664595321347168
159,159,8.956638601849582,0.9499528431139026,1,1,10.804350923511063
160,160,8.87690307266719,2.3213714892130213,1,1,11.466730811114479
161,161,3.743108159356482,6.249540761276258,1,1,22.57037266648676
162,162,6.902334368972993,0.0,1,N/A,19.729725707160892
163,163,6.4355846484908845,0.0,1,N/A,17.54086554711279
164,164,2.2196982353238726,1.8879334035197104,1,1,20.077843404105504
165,165,2.289775642365519,4.581200943767662,1,1,22.091480054334077
166,166,8.96208954516887,6.3987138471345295,1,1,16.379601884902577
167,167,6.6064990549330505,3.7897490044255155,1,1,13.732246401694578
168,168,8.92924270984778,9.706624005805239,1,1,19.885587041979328
169,169,5.152639649978203,6.553073896943745,1,1,18.536348414808273
170,170,0.9011242144694809,9.76102795414955,1,1,22.563760355730654
171,171,3.333760526959452,4.700658488182583,1,1,15.406334639454492
172,172,3.559116874595769,8.273257675456376,1,1,13.241537886235777
173,173,6.458233063477294,2.3654665273101805,1,1,21.307868648428343
174,174,5.685584697884436,0.6605036945419784,1,1,6.809256380005602
175,175,7.137615697185077,0.5212084241111903,1,1,20.874967946084684
176,176,2.7545240555716353,9.051983206154127,1,1,23.331857043445197
177,177,1.7228604310788753,0.32605000420213637,1,1,4.190039744327966
178,178,3.166244975768401,3.0605623364372256,1,1,19.777589992102694
179,179,7.8862855283091795,0.03164759960236685,1,1,15.526609353331231
180,180,5.131884307449088,6.701783209061022,1,1,22.276188577990656
181,181,4.6192386652829445,8.845034992410438,1,1,15.575320900236434
182,182,5.460836504795973,6.250001283593042,1,1,20.13388297292576
183,183,8.7759692250409,0.0,1,N/A,23.45719050293667
184,184,5.020609438957293,3.080023220623762,1,1,8.253207563017362
185,185,0.9451071304557235,8.521605965638134,1,1,16.153521106118497
186,186,6.777155196379846,4.123338870935322,1,1,11.718601362544502
187,187,3.339224409093733,4.831867025681195,1,1,13.456903805494377
188,188,7.3754488320877805,3.9389733173398236,1,1,23.850797402180618
189,189,8.715193293228188,1.9362148621540753,1,1,22.482058860193355
190,190,1.8563197884206484,0.0,1,N/A,22.160133322252392
191,191,6.766920874959846,0.0,1,N/A,15.444342409252506
192,192,0.06796084178757655,0.0,1,N/A,5.657818082684769
193,193,9.47871496685281,0.0,1,N/A,12.640823061831483
194,194,3.1871080636375817,0.17941941033637554,1,1,18.30898032383756
195,195,5.943739275746004,7.39926488332058,1,1,19.882602970730616
196,196,3.5782766272846755,0.5850891452406448,1,1,19.498051115827185
197,197,7.539551137585264,0.40660701492183815,1,1,22.061336866025513
198,198,5.460915430086633,8.82892939741786,1,1,20.29517168273329
199,199,0.37665948874467503,7.882235347592167,1,1,14.629097437759395
200,200,2.9251182300331733,0.0,1,N/A,13.409935087000385
201,201,7.04545388433189,9.54605372323133,1,1,23.33007667740835
202,202,7.715292846354174,4.6304720772074415,1,1,23.21006417978475
203,203,0.5631430229763412,0.0,1,N/A,16.25974294296748
204,204,7.0778826672453725,0.0,1,N/A,14.378748645767036
205,205,7.001933307077688,3.142576101752997,1,1,20.75585472742338
206,206,1.1754421968046591,9.353333544975365,1,1,14.473398212409236
207,207,1.7946631581410988,5.126806699410914,1,1,16.71369854058465
208,208,5.381905128351528,1.2941067910422832,1,1,19.16370020262768
209,209,7.451759393480661,0.0,1,N/A,21.432542400520738
210,210,5.016583081976284,3.4325739910524176,1,1,23.26837728811872
211,211,3.3042785594081003,3.9586850333911117,1,1,19.466117928499322
212,212,4.159228400990971,3.492608767567117,1,1,10.749689174518306
213,213,9.06480961968072,1.3731604405786757,1,1,22.514122110192538
214,214,4.2001218189648295,0.0,1,N/A,17.845256702770506
215,215,1.3586791354500094,9.382254065413669,1,1,17.071810323691277
216,216,2.21168076739797,1.0517906894728979,1,1,10.426438572401295
217,217,9.83710664463358,4.9854217217897165,1,1,21.651272239506714
218,218,7.0740627458080105,9.162615250864922,1,1,19.03374697175786
219,219,0.04636440646137774,7.37802604955683,1,1,13.742840492450092
220,220,0.5746065071811302,0.0,1,N/A,19.874617540587124
221,221,0.5809742726316713,8.345948606060391,1,1,13.509762529863382
222,222,2.5275137137638195,1.3725176389225957,1,1,4.3862926050224464
223,223,5.572189043818501,0.40868367963013297,1,1,19.91402634374254
224,224,8.875959076087712,6.661227800934149,1,1,17.637872579738325
225,225,8.76732189116421,0.0,1,N/A,23.973737841795668
226,226,4.421914354159615,4.546081471166418,1,1,9.937572133459604
227,227,4.328867317543356,5.211331633858213,1,1,15.117276598652875
228,228,8.559981539973403,9.572427770817475,1,1,22.68916590083513
229,229,2.9159481643444387,9.996388415571412,1,1,16.5351807929189
230,230,3.8517997856244834,2.8284530701008093,1,1,13.914473974371916
231,231,3.5174939505354175,0.0,1,N/A,13.185251258268346
232,232,3.3058616689010267,7.5393151868268,1,1,14.803760608758322
233,233,2.214313694303457,4.531029624208624,1,1,19.629670884341564
234,234,3.40769093611092,8.068270950517393,1,1,23.685046808095308
235,235,6.222495898995705,5.473789451257243,1,1,16.619831215792516
236,236,6.991247732488639,8.16649905058267,1,1,15.769700447056518
237,237,0.3867996074547919,9.548309910749833,1,1,17.183744957119156
238,238,3.083342207711597,7.450225728289182,1,1,11.144912259092372
239,239,2.478356671707954,0.0,1,N/A,14.628230844110082
240,240,4.360383930687419,0.0,1,N/A,22.911764919390542
241,241,0.05743136507963764,0.0,1,N/A,19.663557090506508
242,242,6.690003045088995,1.2990099484685214,1,1,21.717111727563328
243,243,9.499018247307976,3.3420587397374115,1,1,13.84298957216489
244,244,8.749717636085826,0.9645488531586377,1,1,22.01956840122621
245,245,8.218517068964022,7.993268236612674,1,1,22.195193084700115
246,246,2.940574663317854,5.285511602585638,1,1,22.03617195498365
247,247,5.67022170828677,1.0318997072471203,1,1,12.57439143240519
248,248,6.552935063140542,6.970787157834768,1,1,21.234835277977314
249,249,2.3175190785681776,7.523077438469691,1,1,21.20259950665355
250,250,7.803681657688348,6.807118900281761,1,1,16.828900422713154
251,251,1.0899733824245084,9.424955203902213,1,1,14.173789169299312
252,252,2.070642228820682,5.261013813878198,1,1,10.547145067247875
253,253,5.487038121434386,0.0,1,N/A,21.65024761820336
254,254,0.6360884810529677,0.0,1,N/A,5.0606577208029915
255,255,8.563792776918103,6.632964086860953,1,1,15.339019770730934
256,256,4.551898776085016,5.926689835050082,1,1,21.79628401626247
257,257,7.815063276723891,0.0,1,N/A,16.59611955194455
258,258,0.7737384733999353,0.0,1,N/A,16.437160754227214
259,259,3.578758727468061,6.813439737256498,1,1,17.712961175991342
260,260,4.946510991525016,3.861487694598159,1,1,21.73995309431177
261,261,5.954800885080893,0.0,1,N/A,22.784676204398423
262,262,3.8815162040786486,8.80839545734433,1,1,21.525167010873222
263,263,0.2651191569904521,0.0,1,N/A,11.553903643255556
264,264,1.3511585948667304,6.672451227491311,1,1,18.811163363736316
265,265,1.9322362090635892,6.888523806095193,1,1,10.794800104741832
266,266,6.901142605647539,9.817275285886822,1,1,19.317427018047823
267,267,9.577326401973142,6.882075874120943,1,1,22.350989652928458
268,268,2.774640341247813,7.785128364076217,1,1,16.619657341002473
269,269,3.9876852679376986,0.5993412522384978,1,1,14.767060190459656
270,270,6.240464226403751,0.0,1,N/A,16.057532693910527
271,271,8.332887733572713,0.5606103430984966,1,1,18.561698842880116
272,272,1.5384800501209073,8.84047297469786,1,1,17.04710888248394
273,273,4.275965336506758,0.0,1,N/A,11.082977204427916
274,274,0.12543687710974805,8.545463921068412,1,1,11.132592507745382
275,275,6.8749940245860595,0.0,1,N/A,23.628206915203062
276,276,4.969121619326228,5.7002796102568905,1,1,22.578427687173672
277,277,8.26965153730553,1.6752904751790432,1,1,12.581583276663293
278,278,0.182390174663698,9.50598945593262,1,1,21.38617374912097
279,279,8.765554788957905,7.334631802554962,1,1,23.490013462917027
280,280,1.3594335405447522,5.893676688296054,1,1,15.07144688240281
281,281,2.0179048042772605,6.299490776101907,1,1,23.350536326002295
282,282,3.458374203696546,1.278672653448153,1,1,9.302597494509504
283,283,0.18404074329888997,4.800509608093815,1,1,15.177965028615503
284,284,9.934898923838183,3.234411497664583,1,1,20.414227226148206
285,285,6.593323294119986,0.0,1,N/A,22.33601885443111
286,286,8.56845439598597,6.200657261450929,1,1,16.389005591049514
287,287,1.736145928802687,3.921483842198945,1,1,23.138144965402795
288,288,0.4462750337722665,6.839576571391062,1,1,15.037233095644742
289,289,5.71644772999532,0.0,1,N/A,14.238250338743185
290,290,6.938955279540304,8.0091683542558,1,1,20.43481855584718
291,291,4.956180508330762,0.42942642900342554,1,1,13.329775821158906
292,292,3.0375424100574744,0.0,1,N/A,19.918980045362375
293,293,2.210488733870152,0.8344990723986168,1,1,21.81917236746069
294,294,0.06842834842636702,0.29333830109110504,1,1,5.476194546441145
295,295,7.360509856760969,8.261859603355157,1,1,17.782213185966036
296,296,2.5105040865067254,5.568278686401102,1,1,19.628562421457595
297,297,3.2261754019399236,0.0,1,N/A,12.273211863107955
298,298,7.707494277272114,3.8759676911908914,1,1,20.958927767406802
299,299,1.9030370928934282,4.838294418441883,1,1,8.203432859122396
300,300,7.486543343102828,7.11243821879995,1,1,17.663846405163028
301,301,4.541034175063151,5.955321294193765,1,1,21.395417414700795
302,302,6.3571555628109975,2.3022002749200157,1,1,19.07548212280026
303,303,6.682477299712753,0.0,1,N/A,8.527159950622767
304,304,2.8897065407455127,3.4280233962571316,1,1,14.178649346083015
305,305,7.303864081365293,4.497921896989441,1,1,20.71619443321736
306,306,5.912964484687507,6.676268994523719,1,1,22.375464970984932
307,307,2.153614927428751,3.5902160731188735,1,1,11.392556801201302
308,308,9.708909386538767,3.5979774061645675,1,1,15.378244684357949
309,309,8.130800766619227,5.547688623001118,1,1,16.150186522246685
310,310,8.452708577341475,4.929033413439479,1,1,21.430298681751978
