,Job ID,Stage-1 Processing Time,Stage-2 Processing Time,Stage-1 Machines,Stage-2 Machines,Due Time
1,1,3.496951192725859,8.031707654781805,1,1,11.682743892827805
2,2,0.5673770217967045,6.150541460566943,1,1,19.591904573812258
3,3,8.689294040147205,6.580523711235671,1,1,15.870318169334242
4,4,9.523715412558792,7.8365310142804026,1,1,20.93393324195706
5,5,2.316099872988856,3.1932257848111387,1,1,17.900022662351894
6,6,7.867964613342934,8.738161830803998,1,1,19.08783843221515
7,7,4.912175817139066,3.0754785650183267,1,1,10.904781515342208
8,8,5.537894633881288,4.785711533073421,1,1,19.75693950862877
9,9,8.333859096413166,5.682736595489634,1,1,17.46721227802821
10,10,9.872600022205042,4.770077223828821,1,1,23.230820684469357
11,11,7.958260244912804,0.8581974291412864,1,1,9.74354975242834
12,12,1.4934866984879636,0.0,1,N/A,11.095505735657882
13,13,2.5319234113601654,2.0062902219299916,1,1,5.314532293957862
14,14,7.138354865032992,1.5320366091948856,1,1,15.742655176836447
15,15,1.2093712781221833,2.977479590409293,1,1,13.407049970273029
16,16,6.4945572067975785,2.6777131513289754,1,1,13.294524361046987
17,17,6.662262544823415,8.146974030194292,1,1,22.980873354264624
18,18,7.477678016876787,0.0,1,N/A,19.91860552995856
19,19,3.05324991751161,8.57829524773425,1,1,21.279499440109536
20,20,5.66000924147401,0.773953378001434,1,1,7.950697609701062
21,21,5.283864991153377,0.0,1,N/A,16.817053395350197
22,22,5.18926667334083,6.076089765868913,1,1,15.726598268440766
23,23,6.161823074123155,5.141750152797947,1,1,15.956340642158116
24,24,2.891099383655548,0.0,1,N/A,16.210194457759666
25,25,1.9258954873249534,4.896595901959899,1,1,18.823754862651576
26,26,6.574392916336218,0.0,1,N/A,23.939821500659633
27,27,8.596187010486485,6.938831015522822,1,1,16.783806424165057
28,28,1.0980639341168452,8.223667237447753,1,1,19.378708183473847
29,29,1.3217824991240246,9.300383237946027,1,1,13.182051286552158
30,30,4.781650588406324,7.63517723368229,1,1,22.895241707315044
31,31,1.530877993453832,2.0086719959311674,1,1,22.01574198299355
32,32,5.583619433549767,3.47821978692203,1,1,9.848080227266426
33,33,2.356443411138377,5.7002155360576765,1,1,9.868546133918954
34,34,6.165135765778674,5.917815314197305,1,1,20.811221257745945
35,35,7.154215431464074,0.0,1,N/A,12.13650229924265
36,36,6.669901357231643,0.6571321799205843,1,1,15.30187733763514
37,37,7.971675361328458,0.999610092409553,1,1,9.459693336984563
38,38,5.312501275719751,0.0,1,N/A,20.736481903907787
39,39,9.299153103173005,5.2055099680803965,1,1,22.396329490218434
40,40,4.352046718644238,5.8721725558328135,1,1,13.956922060396025
41,41,2.980858373663576,5.563849141971073,1,1,23.810436623114512
42,42,8.867064669536166,0.0,1,N/A,16.208657267830667
43,43,4.738784361887126,6.457887836805407,1,1,18.319685387769912
44,44,7.066305253566791,5.257550050224192,1,1,22.320195379401454
45,45,6.593515799038901,2.5233495584257524,1,1,17.009913409545447
46,46,1.5356440581666098,2.906379579954047,1,1,17.800716239450463
47,47,7.250645272749804,9.764868818693014,1,1,20.33693357985241
48,48,2.494369804451224,4.339137201819288,1,1,19.0207379257024
49,49,8.04726982804313,0.0,1,N/A,17.33683063012142
50,50,2.8480538697683366,0.0,1,N/A,17.92401819869903
51,51,2.755278788942733,9.26698168016537,1,1,14.035600599474291
52,52,2.485156652594923,1.5030611148826156,1,1,19.742659683597388
53,53,6.123118093874877,7.5875533197571885,1,1,15.908561053374832
54,54,9.022029705082113,0.0,1,N/A,12.628323994174423
55,55,3.020607756334792,5.438029754361924,1,1,21.680655326746397
56,56,2.1308856666906886,3.9958625124050573,1,1,12.008260795282698
57,57,4.065320326925303,8.46047322984296,1,1,19.518882124777825
58,58,9.171312005049577,2.2032882567170953,1,1,19.430348159999145
59,59,1.0884868571542095,1.1358592844049964,1,1,22.297313375594058
60,60,7.665141389562576,0.0,1,N/A,18.536985000591613
61,61,0.4000286824414445,0.0,1,N/A,14.57319337745524
62,62,3.0838897756855896,1.2872292931114238,1,1,19.242824274912202
63,63,1.32540737851928,3.7398571348638763,1,1,17.00631160499455
64,64,8.997164063062149,0.0,1,N/A,16.281124373375924
65,65,5.673898076675434,2.8063277940308504,1,1,22.84138487025249
66,66,2.7816172134705566,2.6956693973621384,1,1,21.337593880311694
67,67,9.735528409669786,8.01373741027421,1,1,22.860703700489893
68,68,9.689706664146385,2.972464413786675,1,1,18.996633185781608
69,69,1.473488094145966,1.391354177357228,1,1,7.601626506062013
70,70,8.98811358661277,4.059225407017799,1,1,16.53157674695941
71,71,4.4190034549829065,0.0,1,N/A,13.458445743965367
72,72,2.1706216988821083,1.0599573129196294,1,1,20.65136810404918
73,73,3.8537187110705498,0.0,1,N/A,20.92720257181187
74,74,0.8956991480553234,8.074360824623618,1,1,9.584194484535223
75,75,8.954697114934309,0.0,1,N/A,18.949166497925912
76,76,6.318507378420415,0.0,1,N/A,22.44872648923424
77,77,7.891251970193157,2.5880776590345556,1,1,10.894109115226785
78,78,3.473951651674817,1.6584329279362564,1,1,14.878270888906709
79,79,2.5886442175251267,0.0,1,N/A,23.213292402495107
80,80,2.6364424545662923,7.405458314860582,1,1,10.347385861152711
81,81,6.294850078842718,0.0,1,N/A,17.701187579170934
82,82,7.833732830018171,8.427186266652246,1,1,21.147151677588614
83,83,3.892592189646855,2.745012425703053,1,1,18.4490737419599
84,84,9.406353098709857,4.427329866590341,1,1,15.122197537286437
85,85,1.0618470878248654,6.255139434741828,1,1,15.316387031006549
86,86,9.440354753208947,7.7285542165633565,1,1,21.509894395604867
87,87,1.1367089544477316,8.976783657301139,1,1,12.385891058271294
88,88,0.8107188158964129,6.427866455016615,1,1,10.065337608150553
89,89,1.0797616283988942,2.0496170365685886,1,1,21.701581783776348
90,90,6.679625461784564,9.662941332268474,1,1,21.147604375012403
91,91,6.216966870320744,5.658853133651971,1,1,14.611653920985432
92,92,7.394413650838615,0.0,1,N/A,21.59360921416069
93,93,5.086674638518248,0.7594636521720932,1,1,20.155479332443953
94,94,7.935045964737323,3.146468914296058,1,1,11.812177653125994
95,95,5.146642906327644,5.283417167026654,1,1,21.273118988631918
96,96,1.29475442520261,5.715633248095271,1,1,13.027800901211554
97,97,0.2241840815923979,6.869810470656807,1,1,12.297394547597666
98,98,9.913012988398277,0.561900181092031,1,1,13.215792878120588
99,99,0.7342553287743947,0.0,1,N/A,10.972708499777365
100,100,9.140675111446757,7.72488580391723,1,1,22.69662630115514
101,101,2.3750723249949512,2.773770859199718,1,1,11.309246971752554
102,102,1.0725345443107492,3.476857346317639,1,1,18.59924449002577
103,103,6.403747736316269,3.5935161725322584,1,1,11.466436996049934
104,104,0.5735577306181572,1.9954929625491702,1,1,7.502848425029237
105,105,7.951763850978482,0.0,1,N/A,18.23615486770545
106,106,1.5034471962474139,2.28096947906176,1,1,6.317858296983699
107,107,2.8725872554877006,5.799076425052837,1,1,22.03421107208566
108,108,5.630600782766018,0.0,1,N/A,12.403328435600997
109,109,1.822004497466887,4.245285605228764,1,1,23.54629372594309
110,110,0.43888003159110234,5.4185018144827755,1,1,22.815498349908196
111,111,8.889674226739967,0.0,1,N/A,22.908746838829796
112,112,5.27710504946731,0.0,1,N/A,23.23918533987202
113,113,4.669062775522727,6.622778695103627,1,1,12.03857447615788
114,114,5.565945609099725,1.3687817233642652,1,1,8.074577614156318
115,115,8.550536704385053,9.687579023634663,1,1,20.44846664660585
116,116,4.598498145468963,9.817212847891444,1,1,14.734164704439115
117,117,9.2776047053267,1.9069774644573323,1,1,16.537521337234793
118,118,9.574309578006787,9.741126296996883,1,1,21.78499544398173
119,119,9.235622216996063,9.853502310353496,1,1,21.01917799495182
120,120,1.8569985606455208,0.0,1,N/A,7.203127999578241
121,121,4.873166883565724,0.0,1,N/A,10.6507957463029
122,122,0.5362367060077211,0.19401240255612517,1,1,6.639752124746509
123,123,0.73919730865456,5.503110643211261,1,1,21.57210383933421
124,124,1.9085558287210003,2.5987745101979156,1,1,21.21556577209281
125,125,3.0345274425477173,8.347617651058343,1,1,22.309712732171082
126,126,6.116596541180639,0.986104213895268,1,1,21.842871684372817
127,127,9.743655955599554,7.408708516927266,1,1,18.485909289561967
128,128,2.057584472253401,4.927095043002123,1,1,14.933438747097632
129,129,9.884466719117611,0.7622977532884456,1,1,16.95650721858211
130,130,9.322092572927803,7.64401367641952,1,1,17.08300601924083
131,131,7.267042414443833,2.2799401516221893,1,1,14.663376068258328
132,132,1.2217921616227523,8.351572915797394,1,1,16.35364557615675
133,133,4.385141867558028,7.76388132307661,1,1,20.368394186263767
134,134,3.8857077176136112,7.858933431610621,1,1,17.934057401469843
135,135,4.2329770038259005,0.16023267556420473,1,1,23.393834310263415
136,136,7.398637838943633,0.0,1,N/A,16.95149385451314
137,137,1.3232641410403234,0.0,1,N/A,13.662070138891247
138,138,0.18251614554791074,3.06481385599262,1,1,16.65557259912194
139,139,0.30091648224660483,0.0,1,N/A,16.170192508477086
140,140,5.516715581027234,5.462244136036972,1,1,14.914996258492753
141,141,9.038978212574118,0.0,1,N/A,21.88161135236754
142,142,9.905747301802158,0.0,1,N/A,22.617694668888358
143,143,4.170754622455599,4.693445518401088,1,1,10.221924804076618
144,144,0.5445317852951082,1.945152326356142,1,1,6.913490162616224
145,145,0.8729230582798497,0.0,1,N/A,19.682405817641392
146,146,2.655509875413454,3.295906027678911,1,1,15.844747585469221
147,147,9.363945894179887,0.0,1,N/A,20.32013101992608
148,148,4.08277594174935,0.08424933373246568,1,1,11.553394154913118
149,149,3.220351168812946,7.401309156361323,1,1,23.10518532984295
150,150,1.5619816799023734,0.0,1,N/A,9.012519816129602
151,151,6.515274158294744,0.0,1,N/A,13.455410393841595
152,152,3.784317107341816,0.06459110231105014,1,1,13.033801578291246
153,153,5.424885244825653,2.668517844434166,1,1,12.126946540436697
154,154,0.37416838476649894,8.838822904624056,1,1,16.821568236155457
155,155,3.9927060164008044,9.410915002259008,1,1,23.794037829479834
156,156,6.677877255260768,4.506516578792134,1,1,15.242731377378451
157,157,1.4395047657761717,3.138392610501912,1,1,15.570776399899225
158,158,7.256566102416764,0.0,1,N/A,21.206750441853846
159,159,7.687354961303977,9.011750363767202,1,1,23.26087969275487
160,160,6.875348236221132,3.590597801467407,1,1,11.961978737942227
161,161,2.2591406725298957,8.186287020016906,1,1,13.56477558015676
162,162,2.6707327995854255,8.978778774806367,1,1,19.01806112000429
163,163,2.9977220986108524,0.3364368485698399,1,1,22.679544438283006
164,164,3.932496406692799,1.9747769058825748,1,1,6.493808588342083
165,165,0.21000287065930268,0.0,1,N/A,11.95676120498498
166,166,2.467127860670455,0.9681295927919797,1,1,22.823218650213025
167,167,9.901331325030837,8.066307528084824,1,1,23.58909866305916
168,168,4.074286674741,9.424091762092345,1,1,18.908583194071756
169,169,7.1753927733817955,7.095040169621781,1,1,20.952098073331328
170,170,8.176515773296805,3.106257854130811,1,1,21.003925476291897
171,171,5.36356645115173,1.0199481125086074,1,1,17.40985060435934
172,172,9.843199150921336,0.0,1,N/A,23.565291422291367
173,173,6.33288681581001,0.0,1,N/A,23.757942756019023
174,174,4.082056936514008,7.147715685564987,1,1,13.835074243754779
175,175,9.195717104614229,6.632837374859879,1,1,21.5605720600135
176,176,5.603374825189871,0.0,1,N/A,20.492100338700393
177,177,1.5601247677917718,3.880667958660217,1,1,10.874604902498003
178,178,8.30565370021063,7.10661759929458,1,1,22.974661877712187
179,179,4.278093486366509,5.515367754135923,1,1,23.64312753438521
180,180,8.929450822337383,0.0,1,N/A,21.968279220384716
181,181,0.6134757255045142,4.591490649713325,1,1,12.69275177031668
182,182,7.393235673817414,0.0,1,N/A,15.831245204959389
183,183,3.1213466120369726,0.41619697204603456,1,1,23.890992055972315
184,184,5.436539586729108,9.525666611113685,1,1,17.4012913275152
185,185,3.706595041638873,0.1009343002131946,1,1,4.333265486244384
186,186,6.786847884302922,6.00357681347937,1,1,17.026177965077505
187,187,1.4299610183048816,1.1822559934924082,1,1,19.82128563816842
188,188,1.6131549244300059,2.3445066610225496,1,1,22.729268390421115
189,189,2.894439341690501,6.688317601442267,1,1,20.022502288853808
190,190,2.659796441999217,9.110093860932068,1,1,15.28735094816795
191,191,0.3443396080418726,5.749500577320052,1,1,8.955360817714135
192,192,9.800407411195417,6.135848043993136,1,1,18.926098825764775
193,193,6.554008256388766,2.9032718919272495,1,1,10.47771935444356
194,194,2.6421734985723533,4.961424807558342,1,1,20.897658918843533
195,195,4.5328476860058355,0.0,1,N/A,13.250052955233881
196,196,5.596632788680016,1.8625609887780104,1,1,11.815704819002343
197,197,9.63486962759044,0.0,1,N/A,20.938993020638637
198,198,2.4853726180633453,9.813188017593843,1,1,16.6597914984063
199,199,3.344945384344369,4.641196822310328,1,1,15.08403582662466
200,200,3.813808874251853,4.374489763538429,1,1,10.404600256519899
201,201,1.5533951383612143,1.9835571347595904,1,1,3.981841738120923
202,202,3.7599769004016403,0.0,1,N/A,13.682543562048297
203,203,0.19578191965185843,4.0752910166096505,1,1,15.96013686174062
204,204,2.482054807925007,6.153798594877417,1,1,14.130333975338308
205,205,0.34676017937794956,2.9301934029883636,1,1,19.798421985257555
206,206,0.9686036959975575,8.10125491577237,1,1,16.960173091845295
207,207,3.101361846845249,5.0120850985131025,1,1,17.868166295424803
208,208,1.9942712012453268,1.5150447969393777,1,1,19.976906327918773
209,209,9.218112967489377,2.9594597736685833,1,1,16.260235905549628
210,210,8.377516204145532,9.062828588609731,1,1,18.57078410663027
211,211,4.035837269023986,3.110357728587215,1,1,9.48956195140606
212,212,3.2479223225921383,5.038178998786971,1,1,11.023863697688297
213,213,0.5954662891032603,2.9072611253030556,1,1,23.79956362581921
214,214,4.158272058571272,3.18100333835866,1,1,12.896953386778824
215,215,5.260677185994936,0.0,1,N/A,23.61755777283824
216,216,6.516727601018748,9.85196017603357,1,1,20.991318659774016
217,217,2.272224516578809,8.049539109609432,1,1,18.67096583992812
218,218,8.535793466195337,0.31508348083028936,1,1,20.971807819948168
219,219,5.050484498929273,0.0,1,N/A,6.786834273877277
220,220,8.907747265935718,8.456228039249071,1,1,18.01633291843286
221,221,6.4524106694250865,4.624396549661353,1,1,20.89734114352211
222,222,9.501370599415456,1.92091835463012,1,1,14.047495185943902
223,223,0.0758478176024191,6.615938709386159,1,1,9.584637830276755
224,224,8.164690062583505,0.0,1,N/A,13.47727941672552
225,225,3.5606549729308687,0.0,1,N/A,22.79908343471571
226,226,2.2216741072120727,2.2040796453011815,1,1,12.876510334315094
227,227,3.81732983166163,0.0,1,N/A,23.091941545711038
228,228,6.907307957874467,0.0,1,N/A,13.18885004140142
229,229,4.442592612073359,3.582438597692996,1,1,9.904665983117688
230,230,3.357397820379038,7.037019682244986,1,1,15.593635528222372
231,231,5.238192228910954,0.0,1,N/A,22.570861441312374
232,232,6.901574663283611,9.081373702440228,1,1,23.080733446840746
233,233,3.3026418783550584,1.3024816601588363,1,1,13.626440586125973
234,234,1.9670929833951767,4.686864353705474,1,1,19.45432185310219
235,235,1.7754130732411444,9.641461821704308,1,1,22.21643451889744
236,236,0.5321719559060023,6.685469887488008,1,1,8.841006985913921
237,237,8.12955319638904,1.6864745611458543,1,1,18.005702490618358
238,238,3.5348301052283637,1.5609373823059325,1,1,21.633938128814634
239,239,4.694981186317861,0.0,1,N/A,14.991428713767846
240,240,5.560596755815482,5.686001457662838,1,1,12.846392818041966
241,241,9.846542639340537,0.5295079120503232,1,1,23.4406278125674
242,242,7.080992160251656,3.659901421745623,1,1,21.187496700815352
243,243,0.6577033811678779,3.374106509961906,1,1,23.99205671561085
244,244,5.351561056094041,6.494186405869958,1,1,13.765752233679812
245,245,1.0110918618615639,5.628120158846608,1,1,15.413572214366042
246,246,1.6134442469353827,6.114872789278902,1,1,21.125147690327626
247,247,5.694141668266173,0.0,1,N/A,23.297958413195204
248,248,1.4003350825831407,5.401679147718874,1,1,15.241340894117933
249,249,2.394304942698129,6.903519807299954,1,1,22.17697665611375
250,250,2.140452111899025,4.572195350315854,1,1,13.755677241697992
251,251,5.434118200059915,9.162238421809421,1,1,21.35251384114251
252,252,5.07962791688069,6.0338424872570116,1,1,20.72334626854674
253,253,4.558912763607149,0.0,1,N/A,15.173478160481666
254,254,8.357058853713152,4.675550102588664,1,1,19.929088943328146
255,255,4.826419603570042,9.728135288240699,1,1,15.877311161846599
256,256,0.751599497880634,9.115468080981538,1,1,23.767772267389596
257,257,4.902045016317286,1.8564184392732053,1,1,20.097336538939008
258,258,9.37446814734341,7.969953063995671,1,1,20.24249318672269
259,259,6.458770943838986,2.882608762720201,1,1,14.311848920383646
260,260,9.412278682355309,5.7703652545700255,1,1,22.48915568679685
261,261,3.152693795355379,1.2372562502202256,1,1,5.928076497554812
262,262,5.2184063133600915,0.2103850395208695,1,1,22.702337512021064
263,263,5.917038302901673,5.034388226023228,1,1,12.329495566747593
264,264,7.881539094417295,8.269179263553823,1,1,16.850660563425023
265,265,1.0833144154410779,0.0,1,N/A,18.146715453990897
266,266,1.2952841063807752,7.607706074328824,1,1,13.21865482901925
267,267,8.749261486617018,5.271732590820006,1,1,22.124763607265297
268,268,1.4131219080209578,0.0,1,N/A,13.046927851526215
269,269,8.270060281101282,6.212694404179368,1,1,18.54085065719675
270,270,1.5308038183293082,5.577857482826461,1,1,22.90446676298191
271,271,4.666804644933082,7.656797782150547,1,1,13.40336496979856
272,272,7.393376986424701,0.0,1,N/A,23.086724536269593
273,273,1.0909315903128802,5.964816785482622,1,1,10.895286484954271
274,274,6.2904085982817595,0.836388087388299,1,1,8.447267247743062
275,275,6.509893930040457,2.9122824354511136,1,1,12.258831693827322
276,276,1.4366795414793343,2.7963996734700567,1,1,4.469143405297135
277,277,4.766915802841427,7.13957983831291,1,1,14.960503844243899
278,278,7.994260670410954,6.479783365825822,1,1,15.960472373034737
279,279,2.8305671322977233,7.434343953809428,1,1,23.219154149544792
280,280,0.5315067150301434,2.56534318391636,1,1,6.4510576430661954
281,281,8.790167285995045,0.0,1,N/A,21.062205739416378
282,282,1.1598330173091254,4.947092509103492,1,1,12.13019677549537
283,283,6.228049109396149,3.203633264694794,1,1,12.106991724263985
284,284,1.8281861422432344,0.0,1,N/A,12.67273147909862
285,285,5.532812923942299,1.5559721518861924,1,1,8.250997449782036
286,286,6.827719669403624,9.027230881585846,1,1,21.210842215307906
287,287,5.651765556416624,0.22754626123714705,1,1,7.251666488299776
288,288,5.060882802749988,5.140951997703573,1,1,23.186581457588368
289,289,2.8799489385503896,1.0637644191847295,1,1,4.347933869046811
290,290,6.901902914256568,0.7972204121196214,1,1,21.406031797120615
291,291,1.6562489045647932,0.0,1,N/A,3.4184600487104984
292,292,9.409934285231934,5.121492320774109,1,1,18.43618801540437
293,293,3.8126326918853657,0.6036005992637339,1,1,15.921364396865568
294,294,5.446933420145729,1.0323194676547875,1,1,7.917896262408621
295,295,7.6199323734055735,0.0,1,N/A,17.218178967328427
296,296,6.0987805069509236,4.999561902339353,1,1,22.198007075763115
297,297,7.286871857130621,1.627602392894848,1,1,23.1544082514851
298,298,5.310232623047558,0.0,1,N/A,14.032556307304677
299,299,6.2611065565849735,2.762502316381786,1,1,13.818325896945378
300,300,5.7989889934812,0.31127971657435194,1,1,21.613108524617097
301,301,7.346725606328565,5.655609235607661,1,1,16.901044882379736
302,302,4.73742701985462,8.523801997494605,1,1,14.924747198338283
303,303,1.3503524607062667,0.04532722718301074,1,1,15.377712021547437
304,304,2.7736171554206224,0.0,1,N/A,12.997216668710882
305,305,3.5183172658786113,0.05096349286037749,1,1,18.083949414881605
306,306,1.650729331219143,7.061805515726722,1,1,19.18921462707401
307,307,2.7253260041193785,9.671430915517234,1,1,23.96282935859704
308,308,4.22757646536407,2.144544987735091,1,1,11.121021314638183
309,309,8.220587633887051,2.941133069973396,1,1,17.29356552791149
310,310,6.9806922841959835,1.4846962005762288,1,1,16.71132459908177
311,311,0.4776171423423725,0.0,1,N/A,19.06703131763048
