,Job ID,Stage-1 Processing Time,Stage-2 Processing Time,Stage-1 Machines,Stage-2 Machines,Due Time
1,1,4.020957808148859,1.961487774563122,1,1,20.322923166998976
2,2,1.5111539686292885,4.29337447408463,1,1,17.528761474170665
3,3,3.12107019604556,1.6159389043127137,1,1,19.114940151020434
4,4,0.061765882759051705,2.387175368811084,1,1,21.15512829485079
5,5,2.9928242129791913,1.3121881956966475,1,1,10.541616468326211
6,6,4.793386494150335,7.193146323129591,1,1,17.542676516388013
7,7,3.601336013624584,0.8068631368209678,1,1,12.363363956698322
8,8,0.020883280170156393,0.0,1,N/A,18.479890341154874
9,9,3.3362314989253274,1.8001201978871395,1,1,18.6516824289929
10,10,7.393929048687895,5.3890846027405805,1,1,19.651521964495096
11,11,9.79710535402166,7.789463391182628,1,1,18.961093466285508
12,12,2.042892964039218,6.966192514014785,1,1,19.42626820793265
13,13,8.622693826160125,0.0,1,N/A,23.603329556300046
14,14,9.644172777694275,3.235906785419873,1,1,20.55771177311528
15,15,8.312382902011722,1.995266173401098,1,1,14.340542006065398
16,16,5.983321025281482,0.0,1,N/A,16.661273041740174
17,17,8.967629137285302,0.0,1,N/A,20.967418588061673
18,18,0.6571893063044643,5.761767068472948,1,1,22.63580602988914
19,19,2.867672526947019,0.0,1,N/A,18.807236831117034
20,20,5.089165447144156,7.715214394938227,1,1,22.926198204635497
21,21,5.598365062780118,4.7132787550286,1,1,15.781703122270105
22,22,1.7942756284955386,0.0,1,N/A,12.093992863980798
23,23,4.958467884394747,4.9050493760096625,1,1,9.938600282553937
24,24,5.840285421502762,9.385441602117082,1,1,19.10381307739726
25,25,2.448202754227501,0.764982120564841,1,1,6.9079061810628914
26,26,7.848731887636447,0.0,1,N/A,14.349735102674895
27,27,1.1436109509887293,0.21568085834196116,1,1,6.573520719010098
28,28,5.964685882726249,4.245941237978194,1,1,23.921733855398777
29,29,4.3926748873779,0.0,1,N/A,15.686071641576488
30,30,2.8483205102350917,3.1957793211420893,1,1,23.544316027131764
31,31,1.5929841405189926,3.607008603710564,1,1,7.719798909637928
32,32,1.7013291864207303,0.0,1,N/A,19.944352205647693
33,33,7.866714566548911,5.672850178475331,1,1,20.37486478819621
34,34,8.603994876468622,6.304086102388256,1,1,21.673359877542172
35,35,8.472689992822266,1.5945278448089473,1,1,18.59750580250141
36,36,8.487647828641068,4.6559608689586,1,1,18.566142773690775
37,37,3.290419123435724,3.133744831221519,1,1,11.994846070340099
38,38,3.259692989424079,5.109282940687735,1,1,19.562843329415486
39,39,8.160789259082526,4.635484396697295,1,1,17.43322925294013
40,40,3.060173919384285,4.414512950114719,1,1,8.584727453251787
41,41,4.320211000738684,7.787115473997171,1,1,20.91064253946294
42,42,4.988593102548229,4.0404218855433545,1,1,21.87478518896279
43,43,7.288914947552293,8.509206275300654,1,1,22.51281778535956
44,44,6.778275987623116,0.8351668024533665,1,1,20.45847158388087
45,45,7.383433515838405,0.0,1,N/A,18.653730585307656
46,46,2.1695780824146293,0.0,1,N/A,17.60975458816341
47,47,4.740300491107882,2.657688611511376,1,1,16.246293125862042
48,48,7.601148124391049,6.640490967760609,1,1,18.15975158632317
49,49,7.27895613981606,0.0,1,N/A,11.580478834691347
50,50,4.420263791076709,0.0,1,N/A,21.056254951047165
51,51,6.688962021168865,4.943874236671682,1,1,16.654864771263814
52,52,1.9484868308454095,0.494849837758895,1,1,23.41658766021252
53,53,7.985380151448358,2.2057630945124096,1,1,22.318149424814713
54,54,8.455887730222118,0.0,1,N/A,15.253650507380549
55,55,6.389098951726581,2.4730949287017734,1,1,15.631857143372448
56,56,4.066290890354559,3.8337051642799924,1,1,13.42120109683267
57,57,2.180712796195338,4.850412081450167,1,1,18.54581003383089
58,58,3.9682547191272075,2.4372116349315,1,1,12.443985977286719
59,59,4.299641317144049,0.0,1,N/A,12.17080339970581
60,60,6.72215113968007,4.480537096127276,1,1,14.435299038640917
61,61,4.059017861771778,9.187171776954415,1,1,15.880045101811389
62,62,6.093069128567484,7.0903517025826694,1,1,22.91999438369222
63,63,0.47186973244188635,0.727366439050009,1,1,14.69180048002035
64,64,8.297183650293858,9.711479447518919,1,1,21.929137130765746
65,65,7.864313251894819,5.641076353226582,1,1,20.437124524695268
66,66,4.168858107120466,3.5407940685308006,1,1,14.462990310113018
67,67,5.902680383451125,9.97200842534735,1,1,19.001508265783627
68,68,7.615282566423885,4.919665398700909,1,1,13.891680539705677
69,69,8.376365839980362,9.212379753578233,1,1,23.839856332633758
70,70,5.565556277291565,5.281518783187153,1,1,17.39484148248912
71,71,9.913148432014028,6.833544574487751,1,1,19.07965328475103
72,72,8.953014984717521,4.868284719626591,1,1,14.974913535551458
73,73,0.24249322630478964,7.416220512319063,1,1,15.504198006057846
74,74,7.292023424385573,2.6236742504557276,1,1,15.114611314886314
75,75,2.855920245590604,8.08212894541257,1,1,20.09529403608094
76,76,3.230958573059075,7.171107147564579,1,1,23.887132262944036
77,77,0.43209347292850087,8.319776912275984,1,1,18.92910712344547
78,78,8.189042756405794,1.384661246290253,1,1,22.955878952328497
79,79,6.778869495115974,3.4053583579524638,1,1,11.007233860055337
80,80,3.5438941395804013,3.9050574414288275,1,1,13.20813049290648
81,81,5.496268512734911,5.653974365016178,1,1,15.80717067185571
82,82,1.994961975687688,2.5759438549710634,1,1,12.818053005504417
83,83,3.0548686872299804,0.0,1,N/A,22.888883743532944
84,84,6.039524796041862,6.03708817322647,1,1,16.081032829653083
85,85,8.467216520917699,0.0,1,N/A,18.407226273886025
86,86,4.5107137411497,2.960786247595127,1,1,13.472864882112809
87,87,6.734784217608425,3.289358089289979,1,1,16.16433448471679
88,88,1.3544131375844626,1.147219098177995,1,1,12.219943836818038
89,89,8.610771952231715,3.3264817211662843,1,1,18.35787807002174
90,90,4.0890240067785495,9.661623097192427,1,1,14.18926816311496
91,91,6.117305825762752,8.083803349104,1,1,14.713827307790677
92,92,0.3384460159183955,0.0,1,N/A,18.126274579698343
93,93,9.724421086843513,1.1966713187391598,1,1,19.749364875942558
94,94,9.216721368776122,3.4103442856374455,1,1,15.186620135484576
95,95,6.951607861854582,1.8532149320526992,1,1,19.40776642205209
96,96,3.7228491249057702,8.49125786292485,1,1,18.510631746137726
97,97,7.412370252088866,0.0,1,N/A,23.435265456269935
98,98,8.64019163751279,1.1029169254753513,1,1,13.894549152338882
99,99,5.765017234592069,6.2039590676937495,1,1,13.926596063193982
100,100,3.8808342812936534,0.0,1,N/A,23.28220494297952
101,101,7.5276117582755315,1.5427283444488415,1,1,9.596621002926966
102,102,8.234765327750665,6.503481788509204,1,1,17.48112664480668
103,103,4.072832547688167,4.626179076025431,1,1,13.922764411118125
104,104,6.448089183996574,4.41913173578272,1,1,10.894549183142024
105,105,6.94446626128509,7.487527598738161,1,1,23.931459741020127
106,106,8.00051405926643,0.0,1,N/A,17.91174820585053
107,107,3.1698225427080784,1.7384722068581748,1,1,7.599486426409938
108,108,0.04378443324361769,0.0,1,N/A,11.092251120829925
109,109,5.291032204723596,9.816454129309575,1,1,16.03349319685615
110,110,3.558848044767906,6.730333166163716,1,1,11.47780556172316
111,111,0.9172755716653291,3.443319321171013,1,1,13.373597260816254
112,112,5.355857404491774,8.940307737866739,1,1,18.63243749294894
113,113,3.274480240448512,3.5243554697134636,1,1,11.577827880541225
114,114,0.5032273618202099,3.409643170713869,1,1,11.780996802953865
115,115,8.930375036500095,0.0,1,N/A,13.604587191388317
116,116,1.731083135025242,0.0,1,N/A,12.45884467116014
117,117,1.1570772331486356,8.608335282304125,1,1,22.49625317533718
118,118,8.26955485314772,9.201041981093068,1,1,20.18666178529486
119,119,7.7354942835300715,6.556335698587102,1,1,17.22754179510518
120,120,4.939597910252158,1.4153017124681655,1,1,19.10177407663891
121,121,3.7316923893370357,7.595397584352607,1,1,21.38612470481253
122,122,6.478892300360276,5.5730344823985964,1,1,20.441419930455133
123,123,4.034946811419015,0.0,1,N/A,18.413147503119006
124,124,0.029441204327183,0.0,1,N/A,17.23790341969064
125,125,1.192940538698336,8.97679398315235,1,1,16.968066756809492
126,126,0.5783573032455802,0.0,1,N/A,14.6551409847598
127,127,3.966899963865803,6.324886939851465,1,1,20.292562485986245
128,128,9.259872721158725,6.587160520247575,1,1,19.139465599387385
129,129,2.304929718768416,2.0455807207262744,1,1,16.74891653451768
130,130,4.382693812327951,8.622752673030051,1,1,15.657391290658072
131,131,5.086698149282736,3.0377519955535073,1,1,23.913936024894888
132,132,2.8428496559750394,9.678110566219383,1,1,18.64375526047078
133,133,0.8649746029551553,0.0,1,N/A,21.50539613008479
134,134,3.4258426118931053,7.735123695104221,1,1,15.196285025328503
135,135,1.616179403746878,1.3297067302395538,1,1,13.984970374413948
136,136,3.253207752684765,0.0,1,N/A,14.605001077265642
137,137,4.319836281230492,5.26426560045752,1,1,14.457097626994177
138,138,5.879902461576911,3.5651017491556147,1,1,21.217965077394368
139,139,6.42246073397018,1.2317544299244365,1,1,15.716928463833748
140,140,0.37571584659176427,0.0,1,N/A,18.772782798823073
141,141,4.621230881732056,3.179854671254836,1,1,19.235601296361654
142,142,2.254113788782217,0.0,1,N/A,14.581165004628067
143,143,5.903135705854806,0.6343506964914514,1,1,7.190151421021171
144,144,1.659887384496298,7.917065160298154,1,1,10.28820157663101
145,145,1.3353988117955828,1.6523239667169387,1,1,15.344373100623889
146,146,6.570594795963297,0.330897289123514,1,1,20.23269795786215
147,147,6.568397890722165,7.158378787393996,1,1,16.440503831720346
148,148,7.678844387372551,0.0,1,N/A,13.668967132977851
149,149,1.6167369593766256,3.0069936264084465,1,1,12.798100411301965
150,150,7.956949070677526,0.0,1,N/A,15.612509470900914
151,151,1.379291394551847,6.853661218688538,1,1,16.57287838071712
152,152,0.4999573520840117,0.276760750755346,1,1,1.8496627332549371
153,153,2.5223755915970605,9.153776871221908,1,1,17.091004644314943
154,154,4.912154955275481,2.517161257244447,1,1,7.641040248090549
155,155,5.133159967773074,0.0,1,N/A,17.61535580721356
156,156,5.817165771732204,0.5937505629187567,1,1,20.728508096371556
157,157,1.7687159847889544,6.155190758957913,1,1,21.313529410920154
158,158,8.988823855982995,7.646371634107019,1,1,21.956774415068473
159,159,9.457019617983134,9.786948441880707,1,1,21.30627925016471
160,160,4.940295072110365,0.5671441201669503,1,1,6.659311017835616
161,161,9.292826646661625,8.946896577597544,1,1,21.15143597864045
162,162,1.6207291631619247,6.40971438141254,1,1,16.019188379046952
163,163,8.212219977384109,0.6727247787610524,1,1,10.593945544573359
164,164,1.893312537179771,8.11259360934097,1,1,19.42299603700917
165,165,5.430026397862383,0.028945369782159558,1,1,9.13261856911538
166,166,8.325085303596747,0.0,1,N/A,13.274715230739195
167,167,9.26679509444601,0.0,1,N/A,19.040799566595474
168,168,9.002096689463787,3.8570529321635503,1,1,17.16370814029318
169,169,4.2781208122392025,1.3183348265575012,1,1,10.675160808542072
170,170,9.828688834016166,4.373450725009013,1,1,22.0685510232927
171,171,5.256010530734456,0.0,1,N/A,18.24546221926829
172,172,5.853940391705498,1.9218434203135526,1,1,9.268334779724778
173,173,1.1156502638186916,2.6654630239922317,1,1,17.385661348749753
174,174,3.122119622655055,6.417754268385519,1,1,12.742380128077171
175,175,6.589246715664666,3.9822271686825337,1,1,22.758564500862608
176,176,7.824504319180431,3.31743086518405,1,1,18.385890897600653
177,177,9.548375147489297,0.0,1,N/A,21.86143032829954
178,178,7.812966685863625,0.09369524604489698,1,1,15.418455081387876
179,179,9.356867417766978,9.087023219302933,1,1,19.017410957257212
180,180,7.883852036372517,5.777495054735411,1,1,22.964074520609785
181,181,8.94554182803811,0.0,1,N/A,18.225849431690815
182,182,6.135831564403549,7.70425731137816,1,1,21.396624211819354
183,183,7.744307641812494,7.131735251077629,1,1,14.927770917250387
184,184,8.057672117912716,4.896111337279942,1,1,17.00463933767366
185,185,9.50981893131006,8.103559765019309,1,1,21.528765212364842
186,186,4.533645026063952,9.936206231059483,1,1,17.6679991061781
187,187,8.596106967459713,2.3218753621241337,1,1,18.13119656990011
188,188,3.3467111387747095,5.242149156343871,1,1,11.819317920189565
189,189,3.3388964214537897,8.918338846514128,1,1,20.57392742449497
190,190,0.7111606712513108,1.6098552674240096,1,1,19.026399109311754
191,191,1.0541543886792515,1.2876413934928377,1,1,22.0228757105864
192,192,8.98247322347665,7.202390293580846,1,1,20.059496171855926
193,193,0.47039288066643037,6.426746280848564,1,1,7.7600887589769565
194,194,8.564622101891096,1.773407524117936,1,1,23.781853832888846
195,195,0.1262568134859232,9.917884982172255,1,1,16.587074632765
196,196,3.08700316416766,8.114479585916843,1,1,15.029644798025684
197,197,7.514783664257141,6.456167347154571,1,1,19.081267327763022
198,198,6.856158289860717,7.641907877406123,1,1,18.925039520189486
199,199,5.022939690946987,0.0,1,N/A,11.413208726360901
200,200,8.162064159132372,0.0,1,N/A,11.974483146560901
201,201,9.672153122755475,5.87504871405395,1,1,17.177957242203178
202,202,2.3308548310430064,1.6272001065546027,1,1,5.265341497445521
203,203,7.658981195089941,7.978103428377588,1,1,18.59499355599194
204,204,8.973822645991431,9.594565503436513,1,1,22.07246430241925
205,205,3.2597926259726573,0.07319844426740829,1,1,22.366999115215318
206,206,8.971520894253416,6.434026282483206,1,1,21.251737212921103
207,207,2.631371912225121,1.5252585713818156,1,1,5.917979185271172
208,208,4.6129724683015985,2.897554837612184,1,1,19.08872861788909
209,209,0.2867262204946375,5.825983298103945,1,1,16.457933989353876
210,210,9.715819605406812,9.27074848071451,1,1,22.695214544319196
211,211,6.224610194188224,3.6143250502282562,1,1,17.459661588928796
212,212,7.379704540430171,5.654819561435609,1,1,15.8272118692657
213,213,9.87571312728351,8.008419512952639,1,1,22.398339488083458
214,214,5.353198274620477,8.05213130819507,1,1,14.6531040277697
215,215,9.98428602006289,4.801494764836532,1,1,15.587224405116439
216,216,1.4532982979841857,0.0,1,N/A,16.648630877876286
217,217,1.0648071678495485,1.5261089501463077,1,1,18.879110000114295
218,218,5.00823663332609,5.781473106663025,1,1,23.22413273613419
219,219,8.978375259359533,9.208543221011162,1,1,18.4765439323091
220,220,7.838886302982444,7.796558922232583,1,1,19.24338747940907
221,221,1.3192946708466913,6.250885204436514,1,1,14.361688518492233
222,222,4.442228151366676,5.639914922477774,1,1,14.396901870144871
223,223,5.227445582019107,2.3913736871804794,1,1,13.013703942951263
224,224,4.521937676382057,0.0,1,N/A,21.829028287262712
225,225,6.515717910097795,5.499142034183348,1,1,14.066991037897814
226,226,0.8367632467973818,3.442780441124623,1,1,15.284838927963332
227,227,4.781660665992906,4.754046391792204,1,1,10.211554144747204
228,228,9.651205779699911,5.933316800964611,1,1,15.821817374026761
229,229,7.3452743697512926,5.064340075122469,1,1,18.60454576385011
230,230,4.412245225197001,2.269343693760455,1,1,20.06471150192801
231,231,3.850376474927346,5.942994708020354,1,1,17.46064064784743
232,232,0.5211094759361345,1.8949462496685254,1,1,13.667988278178683
233,233,1.7762711392192632,7.751465128656098,1,1,14.805944427889273
234,234,0.5654265849200013,1.5503711274549326,1,1,10.034622476895064
235,235,6.567379080250975,5.5640174297307095,1,1,17.293928470616546
236,236,4.562123571006577,4.099717157909275,1,1,15.749595127946371
237,237,7.3790744436086255,0.0,1,N/A,18.043105154697344
238,238,2.3563196351450455,0.0,1,N/A,16.5284058209885
239,239,3.281754058493714,5.175805022297758,1,1,17.78760885853871
240,240,8.606858577202974,3.635089284114912,1,1,23.95950221217937
241,241,5.213973582832633,7.064947307958321,1,1,20.609531703993007
242,242,5.8054765390489615,0.5337890392212841,1,1,22.79661421282745
243,243,5.2324795152877845,1.604605444473719,1,1,15.081395059400586
244,244,9.870845166925365,4.431688644610445,1,1,21.985036096695627
245,245,7.963816107429445,9.623715852116897,1,1,18.467840769255385
246,246,1.7877982115522906,8.717740300712919,1,1,17.49281806502245
247,247,0.6039418929895668,0.0,1,N/A,12.336426360247241
248,248,8.114525631836559,9.042107388989443,1,1,21.489326139173837
249,249,4.087862394886804,4.56465171718814,1,1,14.182087714748501
250,250,3.6436079625407833,6.419898734633918,1,1,21.25088224896662
251,251,9.61775335712218,6.988473776255826,1,1,20.34756847132299
252,252,1.798006374757396,6.419770446012258,1,1,15.077799354534164
253,253,9.59757779171509,0.0,1,N/A,14.689768710174315
254,254,3.8573453795450896,0.5170638458920129,1,1,22.616533706936924
255,255,3.199930689244125,7.134526431831098,1,1,11.551424832804154
256,256,3.3897068691522634,5.30425976900628,1,1,22.031942231396037
257,257,4.059683080787675,4.476759609192555,1,1,16.820361837649436
258,258,5.843717333419249,4.73219945250821,1,1,13.32714914449405
259,259,2.654913640959183,4.715108171274455,1,1,8.149812872727377
260,260,4.753769139794192,8.192582304663794,1,1,14.262612388254533
261,261,0.3729093830046759,0.41699351045747735,1,1,11.319143964236948
262,262,2.9829237904954176,3.8817082549202455,1,1,16.158845122066936
263,263,1.6517839917503474,0.0,1,N/A,12.15596767499763
264,264,5.034566571063962,0.0,1,N/A,23.674457887960507
265,265,5.417453932856448,9.60059502748135,1,1,23.193084680120823
266,266,0.2800950040252548,1.724541896515016,1,1,8.203334263449564
267,267,4.273937833298055,2.7243812904094886,1,1,17.674834282841893
268,268,6.4935826699986805,5.947038199161309,1,1,17.372763972888734
269,269,0.3483995817207086,0.0,1,N/A,20.182179901530937
270,270,2.4786849748290307,0.0,1,N/A,7.032164914069717
271,271,1.4926582725447701,6.371606819695187,1,1,12.47190545528824
272,272,8.608076481696052,5.683230784980741,1,1,20.682054235872332
273,273,0.8346381198388286,0.802288859775192,1,1,16.97974644965936
274,274,9.67772173751044,9.783265885411744,1,1,22.919245680880717
275,275,6.718661758151865,0.0,1,N/A,21.944784737383483
276,276,0.09354480553508404,0.0,1,N/A,19.867787829277542
277,277,8.177181708428334,0.04507596167406591,1,1,14.296556692318093
278,278,3.4144260184341824,9.15848655966369,1,1,20.163530840314
279,279,4.035600282287307,4.3518112916901295,1,1,10.770143397788063
280,280,7.450441570135732,4.79923095660765,1,1,23.32946831351023
281,281,0.07872291709671297,8.323836405427144,1,1,8.552363925058646
282,282,2.208061892914813,0.0,1,N/A,22.83260078982272
283,283,9.651585711397725,5.2614335593021035,1,1,18.73873111701338
284,284,3.699999761495988,7.52858761736303,1,1,14.981990248033812
285,285,1.341146038360257,0.0,1,N/A,13.879028729139625
286,286,0.34428769848230956,5.7891020357484,1,1,23.47523106961274
287,287,3.3036101575746892,1.2930748455770225,1,1,15.422125531744246
288,288,5.06041601246193,9.61055288730946,1,1,17.33991023617077
289,289,3.299018577908761,5.471030201965048,1,1,13.034854808203203
290,290,9.21864287824235,9.679667237341196,1,1,22.896155854128832
291,291,9.57216573672416,0.0,1,N/A,23.466508347523828
292,292,0.9585382814396859,6.516216123759352,1,1,19.56444560717172
293,293,3.749113779881852,0.04917278449022899,1,1,15.813380466924228
294,294,0.6857038273235949,7.166746488701908,1,1,10.214646962352035
295,295,6.7419363147188935,0.5477815474617576,1,1,10.663896020532269
296,296,6.256187904676858,0.0,1,N/A,22.500878649773618
297,297,2.0376034278572575,6.756372245956072,1,1,17.317996502687016
298,298,3.3309130134512,0.0,1,N/A,23.39895986309859
299,299,8.532112150348713,4.886163983753095,1,1,22.611028559259626
300,300,0.38763096114986406,5.088255224297869,1,1,11.040785427326092
301,301,1.910247616625167,7.33322568545525,1,1,15.153681226723673
302,302,7.699338233905348,8.371846010283058,1,1,18.956206956844756
303,303,3.743755686523096,0.0,1,N/A,15.930354207873492
304,304,0.6402524965388767,7.416915556411525,1,1,20.06631767583304
305,305,8.683941026824435,2.3729221037937953,1,1,12.341402175102806
306,306,3.0594505863386545,4.781305720001506,1,1,20.350332512369008
307,307,4.088301041057431,8.526042926283747,1,1,21.239624647796198
308,308,1.69004174525764,0.6209852384989656,1,1,5.207834854090176
309,309,4.467039151141908,9.425089316320104,1,1,20.03916682087697
310,310,5.075348233264945,8.388449388188663,1,1,15.839283422720094
