,Job ID,Stage-1 Processing Time,Stage-2 Processing Time,Stage-1 Machines,Stage-2 Machines,Due Time
1,1,5.628919509075418,0.0,1,N/A,14.006314270195265
2,2,5.847154219621573,1.649644519277288,1,1,18.65055293475367
3,3,3.777053339085369,1.8973098419400303,1,1,11.120418507953858
4,4,5.111444217277004,5.109144511335812,1,1,22.54093361289125
5,5,7.42558180099053,1.2845415719609565,1,1,9.042043412308285
6,6,5.556442234967539,1.7725407344130917,1,1,18.361114610509393
7,7,5.879226853160152,3.9510135473762507,1,1,10.129015757410427
8,8,9.656416443225561,4.808156197801975,1,1,22.252614290594153
9,9,8.3349840977485,3.6935150444717824,1,1,23.820123155586572
10,10,8.85871120155299,0.42098573478410173,1,1,14.996186607066468
11,11,7.8148017389003455,0.0,1,N/A,19.508770096408895
12,12,9.187097453466418,5.454181512687856,1,1,15.352262924240414
13,13,1.9228962552591577,2.3478228246202058,1,1,10.775259726988947
14,14,0.6238050774113024,0.0,1,N/A,18.601715800746682
15,15,9.3244204741018,6.607213616894704,1,1,21.042124613963132
16,16,9.323752975717222,8.610984887881546,1,1,20.670192509838714
17,17,6.788705899535634,0.0,1,N/A,16.475421246364245
18,18,6.5252518314877825,5.8586016703959025,1,1,22.102465905582207
19,19,8.032862685720065,7.983142493086977,1,1,21.86587724140051
20,20,4.878061948905649,1.8583921171756013,1,1,15.976990268858522
21,21,7.722866872960039,3.5342852535880986,1,1,22.32356144459805
22,22,9.321097283575643,9.825433703739252,1,1,23.028983405656714
23,23,8.013788431310259,0.9600770729258501,1,1,10.694372186775663
24,24,3.8048374806448573,0.6738216094808347,1,1,9.905208987092713
25,25,7.52988886035706,0.2804667074377998,1,1,17.41119810401
26,26,9.694813303560508,0.0,1,N/A,20.2521638358104
27,27,3.1477545907842086,0.0,1,N/A,16.05532481868385
28,28,3.04074856539346,4.35160026145804,1,1,18.27715700995676
29,29,6.686494947972797,4.6948620741115565,1,1,16.664265164390923
30,30,8.66006787582351,8.17176459662562,1,1,21.243801010725164
31,31,7.972497279478138,2.5860960484168793,1,1,20.4969175075845
32,32,3.9633047994468686,2.749335294948395,1,1,9.819798838319022
33,33,5.077614365725908,2.0367247603709284,1,1,8.820273387657661
34,34,9.224565786834004,7.595566844313054,1,1,21.00122528660921
35,35,3.0904776656057873,3.410246321494582,1,1,22.57659147439185
36,36,3.177212673604327,7.9440014525709675,1,1,14.017936991528497
37,37,5.795164449178314,0.06145266716274689,1,1,10.940551001630478
38,38,0.6619658033191766,0.0,1,N/A,15.729004274481266
39,39,3.6305444665231468,7.525249084950331,1,1,21.56255451983034
40,40,3.2762259018397897,7.32776968679384,1,1,16.43345733697247
41,41,3.3180225616799506,4.841152066242426,1,1,15.840610118059281
42,42,8.231605964947626,3.456002718787267,1,1,23.0122018671463
43,43,1.4588714916583856,7.345383315177179,1,1,20.338279802605427
44,44,3.3541034851977516,7.282671479786009,1,1,11.081468192847677
45,45,2.8082221973786767,8.291275009164867,1,1,20.078596675562537
46,46,6.426177664518658,4.542843303311094,1,1,11.499862608092194
47,47,1.2446020481722442,3.8229929245457073,1,1,7.707898337480142
48,48,6.879685708081603,6.167565931057425,1,1,16.82153381289031
49,49,3.4406214341408834,0.0,1,N/A,17.682313799182303
50,50,7.8125590783318755,6.438200971834761,1,1,22.32605168902802
51,51,8.858346576486625,8.59406840964854,1,1,19.0669369603027
52,52,8.92544349191254,3.4472079228156294,1,1,21.2602645332656
53,53,3.743826409074471,8.81536103037977,1,1,14.109959676133466
54,54,9.417153544451185,3.4322664989330054,1,1,17.70449990700218
55,55,3.133781279752421,1.6334004678789127,1,1,21.51796462803569
56,56,7.399856474408123,8.360386680461751,1,1,20.315922729730374
57,57,3.6389670959104627,0.0,1,N/A,15.9870099564905
58,58,0.10138007119608328,1.550200378294433,1,1,15.380672303051123
59,59,4.91251917951273,5.861674487802294,1,1,13.23004345400837
60,60,4.094635603598844,9.357218694023095,1,1,20.026911856644727
61,61,9.529076867709854,4.908539928838611,1,1,19.342442946534593
62,62,9.160480464637052,5.231964793819046,1,1,21.138757873691688
63,63,9.117720699256289,2.418565945635802,1,1,18.660480327731253
64,64,4.153293561238057,4.394977810791212,1,1,22.640201464039677
65,65,4.705651474013792,7.285517728878526,1,1,17.448721940909387
66,66,9.555568630451837,8.756837369681035,1,1,19.32905182747494
67,67,3.891061722611473,9.571012456079883,1,1,21.804634698655473
68,68,3.9107760426016815,5.968642734356781,1,1,17.777890627276715
69,69,9.298761639566617,0.0,1,N/A,17.444079713906454
70,70,9.999327206756165,1.0884058434407973,1,1,18.452726402679033
71,71,5.258674613442795,8.470409952305548,1,1,16.387976433074773
72,72,7.35126818237122,0.898565296350029,1,1,17.94099717831392
73,73,0.6045904272328417,3.3530473411258557,1,1,8.284494461887308
74,74,5.625122462884767,0.0,1,N/A,12.130788732529929
75,75,7.256401573049996,6.458145480037711,1,1,23.895723365089196
76,76,9.370055785032966,8.896729381772184,1,1,21.989015627741995
77,77,9.90583319663219,7.715601725639952,1,1,17.75831516991824
78,78,7.609403259179068,5.5865151114981195,1,1,16.336003160346554
79,79,1.732749792265269,3.8738225841007976,1,1,11.647442147017294
80,80,7.240258360147161,8.226038940710561,1,1,21.050302626866596
81,81,6.689857131656192,4.361758641907594,1,1,17.264538202622397
82,82,9.540993046239478,2.1594045707914833,1,1,23.06916232838212
83,83,2.6116306507610165,0.0,1,N/A,16.75081555834315
84,84,6.5714590691133346,0.0,1,N/A,23.019187992181653
85,85,9.169008964922275,2.8406355434150807,1,1,16.629760216551187
86,86,8.627361536603605,8.864024158205996,1,1,18.389219921569826
87,87,2.121238332637189,9.933600811618447,1,1,18.2182290504573
88,88,9.897630835560715,3.324245791830994,1,1,22.30846561842911
89,89,8.326186113988399,0.0,1,N/A,13.180642050029864
90,90,3.61813493764822,6.05051008612831,1,1,9.822490816230108
91,91,7.321712466733966,1.2748694184204945,1,1,23.208406645876124
92,92,5.8720389038516485,7.43302726647257,1,1,19.527594991619658
93,93,4.934449649584707,9.685289394595355,1,1,17.413233340497822
94,94,6.255896327844821,5.5394085481400115,1,1,17.990738052879735
95,95,8.323750078362627,0.643819205776438,1,1,12.26923528632949
96,96,3.598515931542603,0.0,1,N/A,21.13584562381257
97,97,5.2410220118911734,6.422071047456371,1,1,20.701806770441685
98,98,6.024194827742346,3.117934839237304,1,1,16.689180098184863
99,99,4.137160372882934,4.94336200811172,1,1,22.360462492858407
100,100,6.123619196857878,0.0,1,N/A,23.335330173234148
101,101,3.468752986976078,0.0,1,N/A,20.189853153060845
102,102,1.4000341360436264,7.929988632105063,1,1,23.865442389678684
103,103,2.6543378495565264,3.6718848346644606,1,1,15.931346787163092
104,104,6.57792186697983,0.0,1,N/A,20.51133331239697
105,105,6.972132800509464,0.0,1,N/A,23.588753204928537
106,106,4.3593421947316,7.012513086197974,1,1,23.54834061364582
107,107,4.20455851927784,9.04827655498451,1,1,13.987113425188696
108,108,4.2360989035881556,0.5390694376982419,1,1,5.07002101122862
109,109,3.9994875533891374,6.738203294063644,1,1,23.60924488822262
110,110,6.314696699478514,1.784595937782224,1,1,15.358916986274295
111,111,2.9207083832120375,1.7062282795637351,1,1,10.74842614532807
112,112,3.4248075894922856,7.378202875006217,1,1,22.19078476555343
113,113,0.00582143301340543,0.0,1,N/A,15.107942719631145
114,114,2.7087351126065795,0.0,1,N/A,18.20676357579591
115,115,6.025279617176827,7.540237257182278,1,1,22.166027795251352
116,116,7.5648987343639265,8.46306160494957,1,1,18.112963055041224
117,117,2.130038693745143,6.3520733128996065,1,1,10.978534976761846
118,118,7.746997593171999,7.692923260353968,1,1,19.380656881437957
119,119,2.1332030471242613,0.0,1,N/A,20.633837825477208
120,120,5.027768832607941,7.736025519823429,1,1,22.81761407139185
121,121,0.9696449436309473,2.3716246685948206,1,1,10.357276823869137
122,122,5.775915005581779,6.874584959915585,1,1,21.442180632714766
123,123,7.284101913302487,0.0,1,N/A,13.71182186365117
124,124,0.519908948684018,2.855289777571958,1,1,7.197910458893188
125,125,8.903299030376067,3.0356720369669854,1,1,14.279212055698927
126,126,0.3516606135535727,0.0,1,N/A,14.480090925520454
127,127,2.229865336360638,8.86592502334874,1,1,15.220633154579772
128,128,7.781902448920272,6.948441817692675,1,1,15.649455900607567
129,129,4.807841214435902,0.0020245171475907764,1,1,9.943663941141025
130,130,9.907633678674792,2.675054737164755,1,1,16.671281334229256
131,131,1.8025903005148958,8.598767338961588,1,1,12.720287442546544
132,132,4.875152252207119,1.712284084176543,1,1,13.027155638324796
133,133,6.07909149378576,1.5899504217343552,1,1,10.478488037865638
134,134,7.8191400625590415,5.709452980009221,1,1,16.92974868352495
135,135,5.054359978279801,9.566447407133795,1,1,18.420636100232745
136,136,1.3960032083827811,0.1775982844234436,1,1,16.157977808370774
137,137,6.477846308081288,3.294028368165156,1,1,22.615046248503713
138,138,7.228335209980554,0.0,1,N/A,13.036857567118641
139,139,6.389341111702754,0.0,1,N/A,15.54438218058465
140,140,2.115808452173561,0.0,1,N/A,15.211733340504743
141,141,7.397902114920757,3.2883062470980526,1,1,14.099551690412337
142,142,6.8309904903525975,5.593699061968237,1,1,19.812770242510233
143,143,8.78564456810078,4.952957168321537,1,1,19.40755890154351
144,144,8.461222255602156,9.053115400092164,1,1,18.203087603691706
145,145,1.1338267069684804,0.14878979265453007,1,1,17.945988713280908
146,146,3.725577512544066,1.7146548352667323,1,1,9.828427879891045
147,147,9.60792904781708,0.0,1,N/A,22.80769837660847
148,148,1.9011598600282753,9.019133134528001,1,1,17.799823049735434
149,149,2.2753865370356765,3.0095941070113885,1,1,11.830613652405674
150,150,6.504593626173753,1.1211314696690966,1,1,10.685649189117804
151,151,5.331605934586249,9.452582355445522,1,1,16.296844372020573
152,152,4.130664663396894,4.8042817878995745,1,1,22.12338711957218
153,153,0.6873720361459357,0.0,1,N/A,3.4970373481426282
154,154,7.091218100278434,0.0,1,N/A,23.950567934761445
155,155,4.0248332140932614,0.0,1,N/A,10.147758776658325
156,156,4.705377012096036,3.9772031047416556,1,1,15.61335411707725
157,157,0.32804470489196214,2.377850916773503,1,1,19.733010949934854
158,158,6.0814017154099185,7.972559184727017,1,1,21.6199628082328
159,159,4.350319338842127,3.9307891504499413,1,1,21.45230972597983
160,160,3.616072382840385,0.9497580121327942,1,1,15.746457843182757
161,161,3.4874732873924152,9.294383094292462,1,1,14.558569661346677
162,162,8.695830686330323,2.1769475934921623,1,1,15.453294991718067
163,163,6.5997449813188105,0.0,1,N/A,23.661534237698106
164,164,9.492505644644623,2.8456069836427442,1,1,15.07204272934425
165,165,4.027359682075535,1.6232824973234972,1,1,14.642763749056067
166,166,0.8381262917388332,7.304551327873657,1,1,14.353995472016546
167,167,6.292485848489417,0.0,1,N/A,23.44889187010982
168,168,4.360813141633233,5.66133740549872,1,1,17.701476256882422
169,169,8.816662208118618,7.720287995499307,1,1,19.71782545916007
170,170,7.925704387928478,3.520095178005207,1,1,13.745759774312322
171,171,5.887806359166482,7.591921503051683,1,1,23.64077614727355
172,172,4.592506968949302,2.285676298809088,1,1,20.2534954207331
173,173,8.507917447055007,3.709711021369176,1,1,21.4539299509634
174,174,2.131023551639717,9.673686636610924,1,1,13.896877493995829
175,175,3.364513624487051,8.395908924686248,1,1,22.22088090346834
176,176,5.123212846053149,3.6598437924626093,1,1,16.103638991859754
177,177,8.784024843824138,0.0,1,N/A,23.19536230044112
178,178,9.029843429142218,0.0,1,N/A,20.4548878209804
179,179,8.795923180080964,2.2593396237470618,1,1,21.908020457720667
180,180,4.000414728941191,2.021519597486302,1,1,16.890489659470266
181,181,3.413318573750855,9.79158222037467,1,1,18.972980876941552
182,182,8.40357419662517,0.0,1,N/A,22.909197320354394
183,183,7.134245576171553,4.444378487687559,1,1,13.011156049102462
184,184,1.7996078674645488,7.649166174841216,1,1,17.308681103573676
185,185,1.0538847468909052,4.737695547980653,1,1,17.957595746608433
186,186,0.17400899383975488,1.3997038386918115,1,1,15.181802143837858
187,187,8.188918228650051,4.194701501457318,1,1,15.966123124809224
188,188,7.669089708026068,8.33070992830206,1,1,17.422532809243087
189,189,7.295646850851262,0.21595917288845357,1,1,10.918997604265735
190,190,3.0811385028631544,3.483364987635004,1,1,8.954010687999775
191,191,0.05848580855398744,2.871755521987336,1,1,14.102757858197716
192,192,5.8925070646384885,9.705549033446596,1,1,20.588814891328354
193,193,9.760139473276851,0.0,1,N/A,15.505479676153861
194,194,7.949576915997988,0.0,1,N/A,17.657507914925247
195,195,1.4538980065425222,5.64036317858303,1,1,19.203536757323086
196,196,7.635859844749348,9.285104268211711,1,1,19.65179867078114
197,197,9.189197060180586,4.644128817008245,1,1,21.54296295852705
198,198,4.464511442750916,7.313509220278583,1,1,15.53889701860723
199,199,9.824697969564179,8.132413441424461,1,1,21.862193768496507
200,200,4.702609393337163,8.116028577177772,1,1,13.22119232027622
201,201,3.1336832980111895,6.717473770615615,1,1,13.079934532342502
202,202,8.884535389741444,0.0,1,N/A,12.24676056921785
203,203,5.482394139544171,1.0490349630576867,1,1,7.30753927972354
204,204,6.843314582864915,0.0,1,N/A,23.921335505616867
205,205,5.6252014459596875,8.180982926739816,1,1,18.155177100093734
206,206,1.938633156769346,4.417420429942296,1,1,21.025084762975354
207,207,6.518645120742503,6.735238000538136,1,1,17.604171308242734
208,208,9.996662210370745,7.879311089490563,1,1,18.336076452802775
209,209,1.5774090721823442,6.7843999319533275,1,1,19.299621905210216
210,210,4.773832300869011,2.041826005728835,1,1,13.866949993616927
211,211,0.8704896456037226,0.0,1,N/A,9.820428953206196
212,212,2.835263417356817,0.0,1,N/A,17.95099628988883
213,213,5.514549348941275,0.09404121766548257,1,1,21.979577572730282
214,214,2.523792072576806,2.8449927098218684,1,1,17.052635802962804
215,215,5.111284527795533,2.277059065520084,1,1,14.74675384224799
216,216,3.4493871470291424,0.0,1,N/A,14.605009574744791
217,217,7.421892699893552,5.564361681140854,1,1,22.821527649271328
218,218,1.9292035625809056,1.8854141629528154,1,1,15.924856621273733
219,219,5.345059987181391,4.312330317213371,1,1,23.54150040897413
220,220,3.3674333737386974,0.7235635536449103,1,1,23.681780523298297
221,221,5.289470253919894,7.614743580306697,1,1,16.1826500127841
222,222,6.54648258192182,7.39056162629356,1,1,23.67498305141558
223,223,0.658358361600605,0.0,1,N/A,12.178859824639048
224,224,2.9974463818153207,4.84057890853239,1,1,11.355918771406746
225,225,8.26555608809057,4.168489068544593,1,1,14.4788633937324
226,226,7.411874039252319,6.931433096799494,1,1,19.756105685963423
227,227,5.319444987371059,4.031929253943401,1,1,22.274880412644343
228,228,3.038423717947082,7.861511806786732,1,1,17.763401846350856
229,229,6.548992951877554,5.514111701345162,1,1,17.99721592380456
230,230,5.142486450970516,9.32469959003626,1,1,21.043587446863658
231,231,9.38796187175847,7.225485508928642,1,1,16.849943547337837
232,232,8.828339517199131,1.520415456419273,1,1,22.768930824120503
233,233,9.031333553540314,4.206816406522821,1,1,13.321177794527681
234,234,9.895861238381748,0.2541336436805708,1,1,15.555474941064677
235,235,7.071673406037366,6.404120789933147,1,1,19.02565823216308
236,236,4.909118173130463,0.0,1,N/A,12.834384433541192
237,237,2.0437629571773375,0.0,1,N/A,20.20812675754129
238,238,4.477849283272329,5.821473018704609,1,1,11.986900425411646
239,239,5.219339668298403,0.0,1,N/A,14.813845258602791
240,240,5.689396116148795,4.015791596965475,1,1,14.741268369486042
241,241,4.676544794475985,9.446941993757168,1,1,23.97008584975351
242,242,2.2248553629091408,7.65420708762109,1,1,17.63674418444427
243,243,0.5462489564436657,1.4966252750348819,1,1,12.909054088127725
244,244,2.5033740488526215,6.142181639560209,1,1,11.482102686950803
245,245,0.5469957266398462,0.4175732598644821,1,1,3.376038684769558
246,246,2.0519163768447712,9.026079170403465,1,1,21.5564898752152
247,247,7.906251073182896,8.425976116908009,1,1,19.713629829335506
248,248,2.647179704013878,0.0,1,N/A,15.536730754266365
249,249,5.868368275034889,0.8682978837700217,1,1,20.740262833943074
250,250,0.6579231155756005,4.11314675071046,1,1,6.64198592907349
251,251,2.4973302394866836,7.089336474648075,1,1,13.819355032277041
252,252,5.88833872832378,0.6351229902983224,1,1,22.678845621341992
253,253,7.022517019491969,6.815615939548652,1,1,17.343882942808026
254,254,0.8676510241290347,5.895116303405739,1,1,21.807971495578897
255,255,2.7703279854782004,7.650010388696299,1,1,20.892282904868743
256,256,8.94562890773021,1.3435069075761452,1,1,19.91114116340509
257,257,5.233266516047138,4.159431635864354,1,1,22.30159091083767
258,258,6.12618342875134,9.713051750344464,1,1,19.058684718707482
259,259,5.48318308005897,2.5249330201021722,1,1,15.044869622588852
260,260,3.4333570165968643,9.382030831100938,1,1,23.21020342044099
261,261,5.842616092056806,8.242257976172661,1,1,19.211459361530117
262,262,9.93063238585261,0.3042431392690337,1,1,14.97360690410833
263,263,6.233337028101646,9.834627791939344,1,1,22.329793975666817
264,264,6.37210162984106,4.211119108000936,1,1,16.232535442654036
265,265,2.6306924166689982,2.966274191736513,1,1,19.21479496757058
266,266,3.247834999479994,9.415786047183856,1,1,14.201540607848191
267,267,1.786578315766587,9.907688377630748,1,1,21.48222705521494
268,268,6.381953640061656,1.5562575187688799,1,1,13.948415813517077
269,269,6.748157656332871,2.1692580329490028,1,1,20.08088098144301
270,270,9.372515412045793,1.4882787799055142,1,1,22.49516909636847
271,271,1.3167294652295447,4.7956841453130945,1,1,19.640921385932685
272,272,1.926741902968222,7.09982567929766,1,1,15.152875824614453
273,273,8.031427053558795,2.874095961977987,1,1,21.91509809348277
274,274,8.037520599789868,7.981257863809267,1,1,19.849547697859492
275,275,1.8264515497106415,6.664045119310966,1,1,14.71592581312597
276,276,3.476558611605159,5.855475140707098,1,1,19.089893413850852
277,277,4.228739603567324,5.328695678143362,1,1,13.66127643839868
278,278,6.2383985573489165,0.0,1,N/A,12.313299523877554
279,279,0.3699091997868942,8.6298350103516,1,1,14.258385179588561
280,280,9.546332140688357,1.33367227547322,1,1,23.031202226899495
281,281,0.18106695674629636,3.952229571284871,1,1,16.49800903190659
282,282,1.8774696175135364,9.783869707286613,1,1,23.836378035744076
283,283,4.286243261765739,6.222633626282907,1,1,12.121079476963311
284,284,8.348102259252265,5.5683548483948675,1,1,23.235590112195936
285,285,6.763120919461621,0.2538580482446573,1,1,13.03916484900505
286,286,0.5398622534106645,9.930999799931337,1,1,12.482044402128693
287,287,5.971177299667929,4.459496179786808,1,1,17.836123782091608
288,288,3.3738123008238263,2.006772080803189,1,1,22.35346282975943
289,289,2.282891126655814,5.129426949006806,1,1,16.614208446983515
290,290,9.709604041028099,0.0,1,N/A,19.75675871822762
291,291,4.659258022867875,6.696076427677938,1,1,19.224696159815103
292,292,4.288739590037885,0.0,1,N/A,8.795947904715241
293,293,5.2507177404932275,2.667002312599722,1,1,15.510967842020131
294,294,8.95504740002219,4.447983942461343,1,1,21.65335447737836
295,295,2.0592507883290514,3.4137923615647248,1,1,15.30227892076311
296,296,3.712731033908694,4.96191624511622,1,1,16.224608120069274
297,297,0.330624980535591,5.691188393857411,1,1,17.56852690427905
298,298,9.641352102639077,9.051584666470621,1,1,20.033543911628975
299,299,9.964671509883864,7.918199305484225,1,1,19.294471137886376
300,300,2.811153502082775,3.0552680253518694,1,1,7.041124659488156
301,301,5.202913615200993,0.0,1,N/A,15.593568960442992
302,302,3.2038507486076737,7.760525984311122,1,1,22.81276775843666
303,303,3.767669431690821,0.0,1,N/A,11.797362187189776
304,304,4.755760456712742,0.0,1,N/A,18.808798778680472
305,305,3.5508077322094875,0.0,1,N/A,23.309901056945865
306,306,3.890206920393765,9.972887057782454,1,1,14.149728351912264
307,307,8.86906234507837,5.37760312151284,1,1,19.318570592837926
308,308,3.3949875054762115,0.0,1,N/A,19.10569528923702
309,309,8.577625786244656,0.0,1,N/A,22.141089589419643
310,310,8.361558808714232,0.8431709246433872,1,1,15.35884223067498
