,Job ID,Stage-1 Processing Time,Stage-2 Processing Time,Stage-1 Machines,Stage-2 Machines,Due Time
1,1,7.419111666109238,0.6570891661712497,1,1,16.148078063789313
2,2,0.6917511082964756,8.588252184466125,1,1,11.859610971006935
3,3,8.690653158295374,2.7920659420156344,1,1,22.71460167246312
4,4,1.7563133351725901,6.981081658962144,1,1,15.374401568305386
5,5,4.7073655530942276,0.0,1,N/A,21.07744142853955
6,6,2.854527179124192,2.6476008634434556,1,1,7.03777910679829
7,7,8.474596757176624,6.09307956619868,1,1,16.893163729217207
8,8,1.469012407536645,2.0065005450818765,1,1,22.507500716617137
9,9,7.831034426807657,0.0,1,N/A,21.59915657056608
10,10,8.802204094431929,7.410066591801835,1,1,21.531090534048296
11,11,4.916222589238531,7.924888489757842,1,1,19.150627866985413
12,12,5.797910225005403,8.99394063746142,1,1,22.98096974558148
13,13,0.4863605334297816,6.803509141414877,1,1,9.960716624897866
14,14,0.0693700740703973,6.157700348955436,1,1,9.593277569570553
15,15,3.6875237356072788,7.09499723129924,1,1,10.845058216944526
16,16,5.179747500029368,8.562879359475696,1,1,23.206920143279028
17,17,3.374798474644123,3.038245462554461,1,1,12.246059961314774
18,18,6.137945349149934,0.0,1,N/A,17.2071208774064
19,19,8.888403585123495,5.040626842267581,1,1,17.49707584108973
20,20,3.1655322967778634,5.3367945370686165,1,1,11.574830764155289
21,21,7.314703002565931,0.01375690563445775,1,1,18.621669651177445
22,22,0.5757468985196812,9.702949863216745,1,1,12.53021062493498
23,23,2.547397142701663,3.583162368627778,1,1,11.533267234303665
24,24,6.863792032655585,0.0,1,N/A,16.789845142097985
25,25,1.1170343617619838,0.0,1,N/A,21.465403917873303
26,26,6.919238902721893,0.0,1,N/A,15.88775330499396
27,27,1.3149647844135481,6.999667120306804,1,1,19.323632763254537
28,28,7.823211411651933,4.246816696436278,1,1,14.696773743495244
29,29,9.98462636433987,0.851909507698172,1,1,19.173178369360755
30,30,3.239737662621799,1.1479888688410256,1,1,12.27915054316616
31,31,8.711238162510424,3.7757923968881735,1,1,18.22379079997317
32,32,4.597771615643319,0.29445226480481534,1,1,23.435211274019284
33,33,0.09956830082025303,6.042716199722716,1,1,12.931661119567298
34,34,5.403754661611585,4.423861804195909,1,1,22.508477088328835
35,35,8.020022114088317,4.262245367617386,1,1,14.096144218513247
36,36,7.102182961875543,0.0,1,N/A,16.548778069565294
37,37,9.324894448090888,0.0,1,N/A,15.049604287867627
38,38,2.5794463785027255,8.224272799209965,1,1,21.736035672846164
39,39,8.264930046909884,4.386580851485331,1,1,14.649840565060277
40,40,5.679184455428673,1.9489297761687563,1,1,13.392972739268325
41,41,9.70037656498636,0.2727969390390317,1,1,15.829255629352755
42,42,4.118170906797371,4.0767106826493515,1,1,19.037183088432535
43,43,2.2799504018251673,2.902083017522179,1,1,22.411106890475388
44,44,2.0056112526299374,0.0,1,N/A,23.054419521638643
45,45,8.988217595798421,6.716539598093789,1,1,22.350253909788428
46,46,7.084294944865261,6.786904416593471,1,1,15.787636520475775
47,47,0.6626112274037066,0.760199126234703,1,1,10.347306950609594
48,48,8.314150986724572,4.876532617537776,1,1,14.390239594357142
49,49,1.395857277220388,6.570752862468822,1,1,12.50567361086874
50,50,3.5868509091941214,7.2300813228038,1,1,16.899382476090583
51,51,7.9655219416168475,0.0,1,N/A,22.270580583820863
52,52,8.739404143579181,4.724980260522775,1,1,18.527522138336806
53,53,7.574957730468487,3.5649731833677425,1,1,21.085600563418588
54,54,7.0965975115631625,5.8737541281132355,1,1,17.2690835248568
55,55,4.2580783907201525,0.851757037562253,1,1,6.469370471166575
56,56,4.024723838690964,8.742684802312157,1,1,21.428913903149358
57,57,9.707037639554327,1.2115150507038985,1,1,16.233075725706314
58,58,7.805495259509378,5.783399270747455,1,1,18.011297952159655
59,59,6.419824898041487,6.812075351910739,1,1,14.344514892057108
60,60,0.8359582711497215,6.091483787083872,1,1,12.034207047376903
61,61,8.00722486337503,1.9413148270819391,1,1,16.425213719927555
62,62,7.746155278746514,3.016850975485789,1,1,14.632126848194638
63,63,7.038274707908347,6.715884195815657,1,1,15.883507414226816
64,64,9.779938765681726,0.0,1,N/A,16.960717905457532
65,65,1.4276215366563016,3.479629679426488,1,1,17.990276236734477
66,66,3.800372683566623,3.4315979467126354,1,1,16.319815174504818
67,67,5.56847771684572,9.807992523662625,1,1,18.610032983633044
68,68,2.2272992994127305,4.224227123641988,1,1,17.4171894827664
69,69,7.890691322773891,2.9414897763356143,1,1,23.085988579438443
70,70,5.433862337447026,6.644742120444015,1,1,22.871876105965818
71,71,0.9837251157411864,5.8035760382872015,1,1,19.32532994541079
72,72,5.686155694671648,5.570740549045038,1,1,15.196310888686558
73,73,4.071733861975368,0.761518357135953,1,1,5.1364193584619375
74,74,5.089842641518767,1.1301620340731677,1,1,15.85943184124892
75,75,6.520035609743886,4.97643879489294,1,1,12.574052269566543
76,76,4.772903424377604,5.5293834694534745,1,1,10.907385755355676
77,77,5.282356439365007,4.632121428577376,1,1,20.449935691511225
78,78,9.759841344283199,1.7081527206126212,1,1,21.191182309080506
79,79,1.758141023762806,6.035682811581608,1,1,12.352781612788018
80,80,5.312712229093131,4.331274834748746,1,1,21.96772516185806
81,81,1.7790662850645245,0.0,1,N/A,19.05213649154118
82,82,1.6755787132171496,0.0,1,N/A,10.770568714194223
83,83,5.781168883918007,0.0,1,N/A,18.12989703216753
84,84,0.7489731645338016,7.350584837879789,1,1,8.927117258854944
85,85,1.3661145452838608,7.589486015031306,1,1,17.24726779734702
86,86,9.718581239118913,0.0,1,N/A,20.332129863196965
87,87,4.626297768634938,9.319548372441645,1,1,18.080010839192
88,88,5.886841163610631,4.501766610954103,1,1,19.59501244650785
89,89,7.705138614093661,6.519130092634362,1,1,22.858403994304382
90,90,3.666648704652978,5.266709804583408,1,1,22.371482099165572
91,91,8.014123627021801,2.0543032113214723,1,1,10.098286551286574
92,92,9.257692795614949,5.873058687703554,1,1,16.210764989031244
93,93,2.7770257170541313,8.548241935470468,1,1,15.938485165591654
94,94,0.022880431196846684,6.757130965051852,1,1,19.887610476390627
95,95,6.604809414556188,0.0,1,N/A,22.589095254511633
96,96,6.964182105583296,5.3223083501372574,1,1,14.650452516738778
97,97,3.0399906842293944,1.0769616403282756,1,1,23.49581184830037
98,98,3.6197521939198687,4.015243451611525,1,1,23.568039891932884
99,99,8.217627387222365,2.7028184976770064,1,1,21.249563592880246
100,100,3.9922818729869833,0.0,1,N/A,10.518351759055637
101,101,5.225823091241104,8.915516054493734,1,1,20.10741025579388
102,102,3.9412822325132293,2.8059440738086994,1,1,7.383439179833028
103,103,1.55220815741967,4.658734759097102,1,1,14.569147185237767
104,104,1.075774616151638,8.633708636456284,1,1,15.607203473172081
105,105,8.11038583103795,0.8738674293585147,1,1,10.622691951897373
106,106,0.84193859454465,0.0,1,N/A,8.95665774717867
107,107,9.983676003794848,1.848359283557458,1,1,22.644003621217806
108,108,1.1839812070866351,3.0719060223502237,1,1,18.726490001311298
109,109,4.454813824065288,4.6406885894515195,1,1,9.945142903889428
110,110,3.452193606225954,5.269992534114078,1,1,20.465859509441575
111,111,5.768009562959548,6.532669994427143,1,1,18.789586626222103
112,112,9.318875940417978,0.8291528387254488,1,1,19.430908337882702
113,113,5.793757277295725,9.3275555037594,1,1,22.595214868848124
114,114,3.3320852466209914,0.8145207520777442,1,1,19.088696072867727
115,115,3.448305870167523,0.0,1,N/A,16.15020006680901
116,116,3.2331287447915136,9.58718512455842,1,1,23.58335524260133
117,117,5.058506762554828,0.1145696697993559,1,1,6.4863116582373745
118,118,4.468408981085288,9.418193620905058,1,1,18.559442565223765
119,119,7.208677229442992,9.471237030275772,1,1,20.517823019816174
120,120,6.494728281488172,5.429795410724036,1,1,18.10725625745618
121,121,8.364201133777234,0.7902860753732566,1,1,10.896357613594228
122,122,1.2275077384133448,0.0,1,N/A,5.038585824334964
123,123,8.061270993016747,0.0,1,N/A,20.026874883288148
124,124,3.305658263476896,0.625175025670911,1,1,11.360603858452173
125,125,3.040162735522729,0.2192473957125718,1,1,7.896166185309136
126,126,5.88234080249896,7.339132078405777,1,1,21.752720256648345
127,127,5.1011247394780534,7.063317251440311,1,1,15.50809994262535
128,128,2.4553327214935394,2.8557034180301164,1,1,13.09636626431418
129,129,4.680702910219491,9.611441837218859,1,1,19.497572821464672
130,130,3.2004085766338886,0.43456156087410713,1,1,6.47414886353973
131,131,8.964367282738902,1.8398478592348766,1,1,18.708130163864432
132,132,9.177021725497228,2.0075551280918082,1,1,18.67839395355149
133,133,6.078620299526739,7.922389300433626,1,1,22.488332063810397
134,134,7.644585857351305,6.190876665912479,1,1,18.479816766435228
135,135,0.5438610684029455,5.310933718073621,1,1,11.12724899237125
136,136,2.1097722845875264,5.863994264925406,1,1,15.610549503166519
137,137,4.759472755592176,2.820992400172652,1,1,9.89639918596338
138,138,5.754564991418239,6.931743088012022,1,1,16.17949756012117
139,139,0.02404954978724838,0.4121968497869333,1,1,14.501463192409583
140,140,5.798904310068492,9.341031602404703,1,1,16.49734627848095
141,141,1.9027211350998219,9.197746213150067,1,1,17.22145720273895
142,142,8.97498165080495,0.0,1,N/A,18.09437222293992
143,143,9.651945824493453,0.9209148294173775,1,1,18.237222237527256
144,144,4.869983648250265,5.584426973370019,1,1,14.196819236424533
145,145,9.64816820546358,0.7569485236448981,1,1,11.003329543019193
146,146,8.916453838088888,9.39451898110993,1,1,23.619358637485497
147,147,0.7290387677027987,5.690842886549641,1,1,15.936878235877037
148,148,6.97371659395606,6.9654694394951235,1,1,19.410695371088444
149,149,3.9905025677831354,4.1233802724098645,1,1,9.27609180610923
150,150,6.693605317502287,6.652994901715793,1,1,19.98546254410034
151,151,9.413343243909768,0.0,1,N/A,21.852011300172848
152,152,1.459319737562964,5.744282903169199,1,1,19.89022636838599
153,153,3.176395598667583,4.4858315050743345,1,1,22.91592326152137
154,154,8.311633028617333,5.576610044111126,1,1,19.503457364229618
155,155,5.118852410462146,4.7975754936751365,1,1,11.934150194409384
156,156,5.639005425612879,0.0,1,N/A,14.247433418450598
157,157,8.851932562056508,2.438698951305718,1,1,14.991082362083606
158,158,0.5143097693742682,0.0,1,N/A,12.76789228210085
159,159,8.60331247072191,7.588853227339936,1,1,18.324355965144598
160,160,0.6002226085720441,1.7770019332347087,1,1,14.811777867077343
161,161,2.019585998867861,2.0843978399837715,1,1,22.029785334951885
162,162,6.71045945161917,5.894104160594722,1,1,18.036483437777665
163,163,2.954731613750522,1.6160295337627417,1,1,15.967976775225182
164,164,2.344259802706313,2.576484572110963,1,1,19.603526968933846
165,165,4.133553541887133,1.8941522265500133,1,1,18.27410181275449
166,166,1.6435166756643427,5.069221450943897,1,1,20.431038729617214
167,167,5.449828653225706,6.481071650005569,1,1,20.629873653672938
168,168,8.12404901418751,2.2178093716629697,1,1,20.28966016123009
169,169,5.488082708713834,8.327362482482846,1,1,14.613271139319965
170,170,5.531454433773336,0.0,1,N/A,17.11225264226771
171,171,5.288006292489953,9.82790258090179,1,1,17.97569205097233
172,172,2.69992334551558,0.0,1,N/A,19.80389170132168
173,173,6.077481183749103,0.9618615357749749,1,1,20.995802252049373
174,174,0.32472078424577666,7.103130142816976,1,1,12.169831068616805
175,175,5.828503169406286,7.303060002875862,1,1,19.930278080990536
176,176,5.634633012586594,0.0,1,N/A,15.992605485387365
177,177,5.311678110418356,0.0,1,N/A,14.925431601799644
178,178,0.8690683832247081,9.651255666117809,1,1,17.885524604936816
179,179,9.175395192229486,5.333115141511955,1,1,16.800645583505542
180,180,8.099112107032159,5.878130179769981,1,1,21.750398676841503
181,181,1.4433327456397915,0.0,1,N/A,20.27509101156391
182,182,0.3377390771799993,7.85256470275338,1,1,11.313375192534622
183,183,3.2162502956831895,0.0,1,N/A,20.01437356366043
184,184,3.0874838099041826,0.0,1,N/A,19.009137413180753
185,185,2.130991655999912,8.626126995745127,1,1,23.65702030515029
186,186,1.426779874260239,8.669731363495636,1,1,13.37508737501144
187,187,1.545332390149059,1.7785049812226372,1,1,11.871902050734132
188,188,1.3882433108921743,4.693838816573832,1,1,18.652541274287927
189,189,2.929454262737301,0.09263381753121247,1,1,11.385185266150769
190,190,9.995605634555254,6.147431137673261,1,1,23.16933208567917
191,191,3.69467355731529,8.603819600436811,1,1,16.51648977918895
192,192,7.980054859630742,6.793706654631594,1,1,19.46341770457628
193,193,5.585156790103243,0.0,1,N/A,21.50402916585508
194,194,7.831895464611291,8.733261651935976,1,1,17.457287384362388
195,195,9.731404166239928,5.116928163117162,1,1,20.953839645683743
196,196,0.12424298118547727,0.9369468825461114,1,1,16.924839449639954
197,197,1.9627021802814948,4.275321435217748,1,1,21.294706448338577
198,198,6.479749531047298,0.7514444998523628,1,1,16.444082503165355
199,199,1.9444056020911704,3.986015108985402,1,1,5.941405128620356
200,200,7.767808078023139,0.0,1,N/A,22.142967862449034
201,201,9.99357132738358,3.727033254622969,1,1,22.153896237613885
202,202,2.2464598849364927,1.9607532414459128,1,1,18.984463894569547
203,203,7.294868626889601,0.7404718471235916,1,1,19.803423362029452
204,204,0.09455822777853728,0.058193316151160523,1,1,21.028863932284864
205,205,5.029936130209971,3.1207019880968456,1,1,15.25933043388941
206,206,9.324884131632897,7.321561498707117,1,1,17.817064023970648
207,207,9.539975014951283,0.0,1,N/A,21.4362434638129
208,208,7.024454001053151,4.103501443542661,1,1,13.471152381149054
209,209,3.9439007167529203,0.0,1,N/A,10.378873093139127
210,210,7.413000165994442,1.994967769249767,1,1,12.366434998556189
211,211,7.793862626047678,0.0,1,N/A,14.94424873312301
212,212,2.115873865454898,6.272328743166776,1,1,21.726181572847263
213,213,6.909170905191209,0.09380669543048503,1,1,16.31811160714308
214,214,9.38314949301832,7.73956608357987,1,1,23.873415871304918
215,215,7.749102562763756,4.314075228572735,1,1,17.300126438240454
216,216,6.187584160081855,7.7144117768993254,1,1,22.19458204103678
217,217,1.8717177013474717,9.823320842285293,1,1,15.924772835279597
218,218,0.3301110401415175,7.468259762299171,1,1,12.643328749197439
219,219,0.34622291605406197,0.0,1,N/A,11.600222600380842
220,220,0.9480828842979072,7.210142210221439,1,1,8.940339771743426
221,221,7.455030735445648,0.0,1,N/A,20.715155634252305
222,222,9.783377567273133,0.11420838806766476,1,1,18.61986375321548
223,223,5.648413192408867,0.0,1,N/A,23.500401527385332
224,224,1.6208326562393849,3.487447560659577,1,1,13.37287788048964
225,225,2.142723056608389,7.689400420384552,1,1,10.150064720817936
226,226,3.2526868953459322,5.023788684491675,1,1,19.077621091548263
227,227,3.063940311601386,7.647518224571134,1,1,22.411987908832906
228,228,9.243926725116834,0.13037684717936981,1,1,10.860084123050429
229,229,9.859937691320821,9.426271992088003,1,1,22.96407877364321
230,230,9.140288948771765,1.9627505512622034,1,1,21.597074845167604
231,231,1.6421471465794235,0.0,1,N/A,2.6992836269743092
232,232,9.110751283551563,0.045461781338278495,1,1,14.650616759978615
233,233,2.8741448451866614,0.0,1,N/A,5.085413820715528
234,234,6.384536244356461,0.0,1,N/A,18.24252224427636
235,235,3.9109407633110993,5.061016514074769,1,1,11.546318608083586
236,236,3.172818384621384,3.923604136848816,1,1,13.594258029929637
237,237,2.447528963506981,0.0,1,N/A,8.34619429044103
238,238,0.8194796332983323,0.0,1,N/A,21.746515880145285
239,239,4.659033714138071,5.5216445202835285,1,1,23.592801874501077
240,240,6.522419880184598,8.42812163192252,1,1,22.412155637911276
241,241,6.781424913305974,4.689154206753786,1,1,22.281794175797202
242,242,4.289844541444681,1.216801212064318,1,1,6.701028852614244
243,243,0.3870308869760386,5.5907105173440454,1,1,7.029759621102646
244,244,7.815445559794228,4.4572323378213605,1,1,23.80708683173497
245,245,0.027873069936434902,1.6618159375867825,1,1,19.67601348671526
246,246,6.986220418646662,9.698918411380944,1,1,18.9866099364828
247,247,2.5812256515063337,5.925815039667304,1,1,10.03205846850869
248,248,0.7743543953925236,0.0,1,N/A,10.390900312846366
249,249,1.0957231487511632,0.0,1,N/A,17.335909061940463
250,250,7.959589347426528,3.6922596043339464,1,1,13.810026993380793
251,251,8.180994438674086,7.075689181204675,1,1,17.19756637944436
252,252,5.193221211549202,0.9374136574172964,1,1,8.03583570111055
253,253,4.4686513418514195,6.80885620905015,1,1,21.602720533383184
254,254,4.227950955840668,0.0,1,N/A,10.45264851287636
255,255,1.4923216815213547,8.417724520544175,1,1,13.152280380976858
256,256,4.019249255585757,0.4541876790279564,1,1,20.460178996316742
257,257,3.3536431500248587,2.1412520579700978,1,1,9.342478110732646
258,258,1.8573342941873872,7.448919551610428,1,1,18.517558082763273
259,259,1.5529815423087368,4.295330116885218,1,1,16.8695696160154
260,260,2.788291327539043,4.316501224705977,1,1,7.3965077086584055
261,261,4.899939634183275,0.0,1,N/A,11.672097842763602
262,262,0.009076686507464293,7.1142081235477,1,1,13.314562775958242
263,263,3.1619049282397382,7.60438405381392,1,1,17.768993906361803
264,264,2.728301985946305,0.0,1,N/A,20.44799261240045
265,265,3.1291371453708603,6.795298150091601,1,1,14.424957723411369
266,266,6.066904096841784,0.0,1,N/A,17.322652972045262
267,267,5.645710985071393,0.0,1,N/A,10.819574037087202
268,268,8.744292259440709,4.622538396072025,1,1,13.976014711245378
269,269,9.561079558226911,0.0,1,N/A,18.875221091344898
270,270,0.02449268157044604,7.77833198283306,1,1,9.662569278282987
271,271,6.146490621203677,7.890526971564321,1,1,14.575358146039429
272,272,6.151195477750392,8.755379727317981,1,1,18.17864614290239
273,273,5.623506162134557,0.0,1,N/A,22.29360207430171
274,274,7.590160280341534,2.4909145410929234,1,1,12.033064989098165
275,275,5.739030086189384,0.34713924654532047,1,1,22.73404772685799
276,276,3.004795880037566,0.0,1,N/A,15.688401820252176
277,277,7.851223391897268,0.0,1,N/A,15.882044469881894
278,278,3.421124969897613,0.0,1,N/A,20.331960081713135
279,279,7.87071918812137,5.253264183062826,1,1,21.250354774041703
280,280,2.490152452538493,0.29627303544914274,1,1,13.630750353616039
281,281,5.814942295436798,0.0,1,N/A,16.2209153382308
282,282,6.020403949129821,0.0,1,N/A,20.29309164952782
283,283,7.627186200616849,8.281615288738568,1,1,18.23838593527133
284,284,7.874592297595689,9.847533864327273,1,1,18.67288812079178
285,285,7.51336659984502,8.054823569747285,1,1,18.80681025815005
286,286,2.247828281007973,0.0,1,N/A,13.462921151354067
287,287,4.562730150830654,0.0,1,N/A,8.291222387240857
288,288,0.06474934888221706,4.155681938096366,1,1,19.91230495333159
289,289,8.767241333939948,2.7816199804474517,1,1,15.567245813416406
290,290,3.6781912927154305,3.6131161186579885,1,1,9.939389036041375
291,291,2.422044091577702,7.503894885439309,1,1,21.08560449176214
292,292,8.072073584500412,9.114727285281527,1,1,21.430093413330283
293,293,3.7584757220052456,1.5387612284500651,1,1,5.3518590323204105
294,294,4.319460837350103,4.110742981688488,1,1,9.759837154069047
295,295,5.102575685179316,0.038774781535291236,1,1,8.667647630640532
296,296,7.1134241459635925,8.29690079108408,1,1,23.50808186413962
297,297,6.382103261429379,4.072092955365721,1,1,10.776094242990382
298,298,8.384282802670453,0.9856164120489186,1,1,13.533229545805572
299,299,7.629726556612396,8.48804058829593,1,1,20.02312911264788
300,300,3.387341354303377,8.33434258269386,1,1,23.081898323124456
301,301,4.649895880233758,6.703049969252518,1,1,18.449214692912825
302,302,8.53033317944345,6.3698378164639085,1,1,15.432514150506593
303,303,1.4229799467193016,7.886559891843917,1,1,12.66017482446138
304,304,2.8884111474675143,3.6310025293866186,1,1,12.474441115753905
305,305,8.818773375017301,3.1175017398338936,1,1,14.042457886404087
306,306,2.4699038560000885,6.988078916373871,1,1,14.528589784978692
307,307,3.378190813765085,1.2803805566261572,1,1,8.49854412460584
308,308,6.286614903366412,8.355084566384205,1,1,23.880640557753384
309,309,8.341049491530274,4.693025480941946,1,1,14.587919162860704
310,310,9.067033504930409,0.0,1,N/A,21.50228076077874
