,Job ID,Stage-1 Processing Time,Stage-2 Processing Time,Stage-1 Machines,Stage-2 Machines,Due Time
1,1,3.1904415881452364,4.537511384346979,1,1,16.814083344016453
2,2,8.641851295951605,8.716431476066237,1,1,23.686237463643927
3,3,7.836433555163756,1.8631925188252463,1,1,9.821395173736114
4,4,2.6077165819071424,5.880484223645088,1,1,9.208413091500326
5,5,5.049851031885946,7.104033992188499,1,1,15.492949359518821
6,6,3.496933287162446,9.204622971971476,1,1,14.854680378552011
7,7,1.8480282869356812,4.298230350197922,1,1,20.602597210413705
8,8,5.927809704960991,2.9629645806219083,1,1,14.186183114623201
9,9,9.510094773349975,2.11975847813211,1,1,18.11057890214447
10,10,1.5631299466899118,0.0,1,N/A,15.240963151405259
11,11,1.949338849571226,5.411600461480933,1,1,11.12021948312238
12,12,9.70726349052307,0.05855200184833098,1,1,17.725099342213486
13,13,8.08255348879256,0.0,1,N/A,19.438180629742376
14,14,1.2018190308093257,4.7916968662140675,1,1,7.796010356884452
15,15,0.6385232685315978,4.612577655713216,1,1,21.80542613817187
16,16,8.61252763374855,1.3509798179371568,1,1,23.117054438026642
17,17,7.429480082800572,3.600596166905934,1,1,13.874577856116293
18,18,7.132996329128632,1.4971814158944152,1,1,14.615869586023695
19,19,4.3301789383139795,4.092883415444007,1,1,14.30874377989528
20,20,4.42107939539084,8.029330676352915,1,1,21.240892700071406
21,21,7.391997828744138,8.723370051859124,1,1,17.810623416982583
22,22,0.19642631727375126,0.88561971247752,1,1,5.940430341952204
23,23,5.839587474712065,8.111284072024404,1,1,17.46807289222759
24,24,7.287571396968975,0.0,1,N/A,19.214837320513695
25,25,1.332518352571933,1.1083963313271705,1,1,18.378644570544715
26,26,1.3308567011698824,0.0,1,N/A,14.586177891232724
27,27,4.736908412352681,0.0,1,N/A,10.316015406513507
28,28,0.9473233144619431,0.0,1,N/A,21.75894566403265
29,29,1.1213383891523798,2.7589431559498587,1,1,3.9624807480812247
30,30,2.1578866241030834,8.841969116122984,1,1,18.981197116216933
31,31,6.4171693836778445,1.6777482994142112,1,1,8.839248043558928
32,32,1.9444463983688287,0.0,1,N/A,15.609711590072013
33,33,2.9351538718897254,5.626730120429533,1,1,23.044241299691784
34,34,9.378981873524044,1.827858858564566,1,1,15.09394252133607
35,35,1.8762484223571652,5.910598857729898,1,1,22.621753586450982
36,36,0.26565232041735776,0.0,1,N/A,14.425943814028312
37,37,8.474064086865411,8.007182834488033,1,1,18.435623482010314
38,38,8.26999423820925,9.713388511925656,1,1,21.70411737966101
39,39,2.898790759199793,7.158893191579695,1,1,17.046936557015844
40,40,6.834245297134674,5.480991070038357,1,1,17.27810679784496
41,41,6.276830648835045,6.3715559665018375,1,1,21.322188500427295
42,42,4.035454925317493,7.8331196673545564,1,1,17.663934012001206
43,43,1.8970247534144258,2.9481314223524424,1,1,13.7592568241963
44,44,6.609804557877393,4.125679155268919,1,1,16.930738371508497
45,45,6.008854230129359,2.210198145566624,1,1,18.648943227188234
46,46,1.6049675593181356,0.0,1,N/A,7.965582333253206
47,47,7.743993595734828,0.9291636071164366,1,1,18.983287592740616
48,48,0.20800645471573342,9.353665342023037,1,1,13.02409541410041
49,49,6.6342562953431905,1.7932902324804845,1,1,14.24108080752747
50,50,9.622208186358854,7.923470371513357,1,1,18.183208911825712
51,51,0.8224393784354689,0.0,1,N/A,14.907087806015051
52,52,2.717946777386145,7.962136832459757,1,1,17.09095179380281
53,53,0.4129465376375252,0.490745980632733,1,1,5.148029124012834
54,54,1.1763148426418268,2.7239567891499226,1,1,8.500427065691873
55,55,0.33637446936127136,6.906841338181251,1,1,16.388622611832158
56,56,1.5439262487167515,0.0,1,N/A,12.058514786853234
57,57,6.215693181749256,1.6128246998005669,1,1,22.28061478942557
58,58,3.8758275498196983,0.37038436316506607,1,1,6.210471601445281
59,59,4.095869070154535,2.217581032284942,1,1,19.99598867135323
60,60,7.293178262008268,2.92708655554336,1,1,21.49578765809393
61,61,8.912562717460213,5.488439591187394,1,1,20.558274433692077
62,62,3.8784751820513517,2.0913379813927446,1,1,8.449702676645467
63,63,5.766772770573885,7.456462579001738,1,1,22.526254411905363
64,64,1.7227046105831378,5.31486883253349,1,1,22.149038845474422
65,65,5.9268769503352905,9.356948848527665,1,1,20.43914831579722
66,66,0.9982317067688995,0.8963543791507678,1,1,22.20434205456955
67,67,4.43236964039898,3.6328723724261702,1,1,17.6022814157216
68,68,9.17466251812452,5.646808754302538,1,1,19.714657477506563
69,69,2.151830313264953,0.0,1,N/A,13.598641316969356
70,70,0.7497654445360924,7.57764675949174,1,1,21.583034213625794
71,71,1.791050460006307,0.6316649489971671,1,1,15.062103721231825
72,72,3.6900400417615797,0.0,1,N/A,19.077834608484018
73,73,8.407214530476907,0.0,1,N/A,12.3104980417082
74,74,0.8490802498693029,4.878846050215856,1,1,22.853631780976407
75,75,0.7374291561262114,7.969039763708411,1,1,14.675898668871255
76,76,6.654757416848391,3.0850675346707703,1,1,10.680450946006587
77,77,3.726557436335949,6.002842557698266,1,1,17.297303429021877
78,78,4.165860294552237,1.2001620415853542,1,1,16.080956819389844
79,79,2.065218028613307,0.0,1,N/A,20.919528500309863
80,80,5.138293684063548,1.0927967537765881,1,1,23.28952042699661
81,81,6.063828162902569,8.548281109999568,1,1,22.379164499176973
82,82,7.864619993202925,1.1328068615431752,1,1,15.967627999358209
83,83,1.238495946058329,1.303468204290238,1,1,8.268087991817026
84,84,3.388047907393801,2.9427202946624567,1,1,6.65011997565137
85,85,3.968497884198298,5.970131575035836,1,1,16.52662683851236
86,86,1.43402193074461,2.109321598834569,1,1,9.443243951194795
87,87,7.910956864960898,9.687646920352018,1,1,19.178057963861704
88,88,9.352123737086549,8.728240141724365,1,1,23.55935197971796
89,89,1.2201170187159838,6.398438024026616,1,1,18.680225786170908
90,90,9.60538798890115,2.2881691099550094,1,1,20.22038701566202
91,91,3.8538849592745583,8.403640387996548,1,1,19.43959320124195
92,92,1.7550583158549904,3.9528198505129932,1,1,23.146035217091878
93,93,2.070628697118837,2.552830831804153,1,1,14.888812038483437
94,94,3.126946281136447,4.865555555474092,1,1,15.49712233132398
95,95,8.848014187054158,2.2804354963070503,1,1,15.207529487489749
96,96,2.7478613846744517,0.0,1,N/A,15.096498710732893
97,97,2.8217893300741492,0.08092660250959116,1,1,8.196259976813568
98,98,4.526945382333204,2.0263713339966682,1,1,12.285925134931976
99,99,4.657633407013781,0.0,1,N/A,16.089230985816048
100,100,2.319967463716811,2.4704138886426485,1,1,20.95491259560881
101,101,5.907391618534819,7.886579292951053,1,1,21.543770690468747
102,102,3.1993034539356535,0.6883861953306336,1,1,8.052385096296087
103,103,1.249823417950514,1.029460727889041,1,1,19.9886256089631
104,104,8.627460379831799,2.280432605866239,1,1,12.488416466984429
105,105,4.741817618117757,1.004793045970328,1,1,8.335854564749651
106,106,9.467157026280153,4.31043031056055,1,1,14.342985991099464
107,107,2.9310771553073067,2.7656852365273696,1,1,6.491438713643893
108,108,3.7948641101499323,4.5422089471841005,1,1,13.319210943209802
109,109,3.6687292866638153,0.0,1,N/A,15.034854430269444
110,110,4.111798551783242,0.6085822336983382,1,1,10.879603693083673
111,111,9.655768553999202,6.042112773444455,1,1,17.17726621820737
112,112,3.7119298964565814,8.286203734750258,1,1,23.568809565155654
113,113,5.8122426479791764,7.759614346357027,1,1,15.801083021749548
114,114,8.007485334440998,1.5099864309120192,1,1,15.53301440656396
115,115,0.4908051724167506,0.0,1,N/A,13.865318437609128
116,116,7.907330382996705,5.6253598194229815,1,1,21.267368502855497
117,117,9.236833492231005,2.394886248101585,1,1,15.60461692014347
118,118,5.1321503004774875,9.179261685366207,1,1,14.57003835790069
119,119,8.645067662819404,0.0,1,N/A,13.906590153793088
120,120,9.371918812853702,3.9711345530715914,1,1,21.729301130707476
121,121,3.991622192046098,0.0,1,N/A,8.805429428995957
122,122,4.656258611410094,0.0,1,N/A,14.159971297145992
123,123,4.861522189746834,8.036024911291648,1,1,17.82217505076823
124,124,6.834925844652002,4.9879419194055865,1,1,14.342721946837457
125,125,0.919925028197095,0.0,1,N/A,5.377619019468185
126,126,3.393761501250073,5.934391565487605,1,1,17.648073662221186
127,127,2.324958976352197,2.1099782139237244,1,1,17.405828074078432
128,128,8.340588495161162,7.833169068426919,1,1,19.620327053822525
129,129,7.727376553492244,0.0,1,N/A,12.78648468966873
130,130,1.9833885159867959,0.9902368016605323,1,1,14.017386432031739
131,131,6.468643048070868,2.713849862251111,1,1,19.94769675183649
132,132,9.568715424642981,1.5871306398243057,1,1,15.990365021021145
133,133,2.1186131479996706,7.482994901293301,1,1,19.003635437114717
134,134,8.495687272018348,0.17405312373814041,1,1,19.007334588661692
135,135,6.909083650797664,8.451906472553649,1,1,18.720348852815683
136,136,1.7778119632083655,2.6081560506413046,1,1,12.023304744739487
137,137,6.357149832652922,7.017785136476867,1,1,23.603501698086514
138,138,2.7730908726691883,5.772096513708877,1,1,14.871952483180756
139,139,3.8895903864257253,1.4325684347962275,1,1,13.258889306518116
140,140,5.729928906646212,0.23537576517395964,1,1,7.392471823775329
141,141,7.160348502697946,6.418093024955604,1,1,23.41603557178579
142,142,5.407715370491878,2.36031307115097,1,1,13.307033732106515
143,143,2.3833520164261826,1.0800770279498995,1,1,15.668501281159187
144,144,9.298630215905288,0.0,1,N/A,13.639676078866346
145,145,5.504234697931678,6.698321225809751,1,1,20.367356943800175
146,146,9.67998249390786,9.335581084573981,1,1,23.39662217501821
147,147,4.119689159489495,4.793643495920772,1,1,10.624341761388777
148,148,4.555767508393213,3.6092886569278027,1,1,8.795885502216471
149,149,4.976503475062065,0.0,1,N/A,21.104032834209747
150,150,7.798883403061254,3.409039961290843,1,1,20.525486265314598
151,151,8.24715633796727,0.0,1,N/A,17.48787128611948
152,152,3.304414121362705,4.591030197424515,1,1,17.259100587219166
153,153,3.469353659379447,6.37991138838917,1,1,10.436091675815176
154,154,0.5303278027716352,5.653791240322327,1,1,10.52477346151429
155,155,1.9473872978375906,4.2387565255896495,1,1,12.20228726005682
156,156,7.792872486435977,4.550430994238485,1,1,21.692280775055366
157,157,7.229390666166577,2.133123079925574,1,1,14.881235355004303
158,158,1.5937707773072718,6.037509642882728,1,1,21.453735142091602
159,159,8.813133272051939,2.721459932568129,1,1,19.287827482500507
160,160,0.3263010741979022,0.0,1,N/A,20.83918456924071
161,161,7.645859814820904,5.720345628030863,1,1,13.578333978761577
162,162,6.915556131579431,0.8817366705528662,1,1,20.05876378534514
163,163,5.983059391636183,0.0,1,N/A,12.670486776557258
164,164,1.0943235940153473,0.0,1,N/A,2.801756956121891
165,165,2.935146649746947,7.07823473358726,1,1,21.534903787793148
166,166,9.094470025483812,6.790974129853194,1,1,23.387034519174904
167,167,1.8969797692975443,9.320873916371577,1,1,18.12448866202178
168,168,0.7846861374062886,0.0,1,N/A,17.42966726459253
169,169,1.7984448864361557,0.0,1,N/A,21.316229260133078
170,170,9.048586745311319,4.638234482997726,1,1,22.93729691565024
171,171,0.5618180305190634,0.0,1,N/A,7.808844886863675
172,172,8.341188049764773,4.248571869452723,1,1,18.415647377525087
173,173,9.615719460347016,2.0792145689689723,1,1,12.936637112735639
174,174,5.139518913526294,0.0,1,N/A,11.062681453491761
175,175,1.210610519613089,4.327097117477323,1,1,19.38810580045056
176,176,3.394372057154753,8.065168567872195,1,1,20.219762292980747
177,177,0.6577407576532668,9.695464440940944,1,1,15.323343265736256
178,178,0.32439651197654573,4.6123332879361865,1,1,21.761188175667463
179,179,2.7111736591275615,7.526535079789998,1,1,18.627859440591813
180,180,8.798072650747866,2.2528049769625946,1,1,14.955973000089003
181,181,0.45839924591780434,0.7085864484443472,1,1,11.970670025796364
182,182,2.0321481086948125,0.0,1,N/A,17.816970087984675
183,183,2.4804938718970138,4.882473866226118,1,1,19.382961342759543
184,184,7.932317666912306,0.0,1,N/A,18.994953108849863
185,185,8.437335942527703,7.190774560048223,1,1,15.796163889636826
186,186,7.657001823014781,9.594232959190608,1,1,20.100797584329168
187,187,9.687117461455735,0.0,1,N/A,18.256052679361122
188,188,6.593108693648696,7.918152582517965,1,1,21.305156831820106
189,189,3.2633771131851965,5.443112453818289,1,1,20.047497540727477
190,190,7.971769669234986,0.0,1,N/A,12.481835670535489
191,191,5.147147260500321,0.0248368012784983,1,1,9.863643520910813
192,192,7.187034313998598,2.4041279052919773,1,1,18.73171723530358
193,193,3.1405933409609132,0.0,1,N/A,18.704381910989913
194,194,2.8683475498126896,3.2420201247789215,1,1,19.99597905574805
195,195,3.3103960499832863,7.652684164087532,1,1,14.11730420228049
196,196,4.981279837369195,4.820627824499978,1,1,11.70803809329638
197,197,9.826246191067638,0.6127851074577473,1,1,17.61068015735438
198,198,8.533668219075247,7.781704861826339,1,1,22.695786583421146
199,199,5.53182429791491,0.0,1,N/A,17.155314578774927
200,200,0.3467363854234251,9.32955017013981,1,1,22.326417006413173
201,201,2.466532804992939,8.497034753245341,1,1,23.737975232304876
202,202,1.2536533537097194,9.18095296639889,1,1,15.211134905991482
203,203,0.21267207559114598,7.308818750356295,1,1,21.994616701182064
204,204,7.699803666513301,4.305743040465999,1,1,21.02404636809549
205,205,5.466283399041513,9.270877593727588,1,1,17.89676900594256
206,206,6.8395644227306125,7.260504956956792,1,1,22.106570907001952
207,207,3.000054553152227,8.555013506136445,1,1,22.28793426054041
208,208,2.965003090287026,9.43806415027894,1,1,21.891757234252708
209,209,0.9950105051902092,7.129809989074438,1,1,12.378512581020733
210,210,3.622988406170873,0.0,1,N/A,22.078007096394845
211,211,2.12117592017113,0.0,1,N/A,12.996131634547933
212,212,5.698135730132807,4.834063052186476,1,1,14.857664058955681
213,213,8.941104065554756,4.21356927138591,1,1,19.761219790192985
214,214,4.134406075800734,0.0,1,N/A,22.834711411484275
215,215,7.15019564054444,2.365411047374221,1,1,17.520239920518414
216,216,7.620829001864888,0.0,1,N/A,15.973775272040594
217,217,4.669869896294,3.6512254104860133,1,1,22.475908432356434
218,218,3.075753157223388,1.7974503038976186,1,1,21.57875320556994
219,219,8.524367298034594,9.216296925051898,1,1,17.777538685305895
220,220,6.089322624299532,9.788211333796719,1,1,21.346616184390943
221,221,4.971704175099916,8.736445166501003,1,1,19.326468689864118
222,222,3.833995050081854,1.3772316331779266,1,1,12.710360510808165
223,223,4.334614648303684,5.921081277094848,1,1,13.996184664512704
224,224,3.4469005109396678,1.1515339275339809,1,1,8.357846954717466
225,225,4.445686229945787,4.4949556542465885,1,1,14.990826057324071
226,226,8.587477949694192,5.1716943162320845,1,1,23.5276744625586
227,227,7.16898168205348,3.019399391450548,1,1,10.433530041069409
228,228,4.23577487869796,0.0,1,N/A,21.91867130886669
229,229,0.08010029639478056,0.0,1,N/A,22.105233075462195
230,230,9.699182738229728,2.368202833648525,1,1,20.276785205946148
231,231,3.8329982087164804,5.499872411231069,1,1,12.257116343148565
232,232,8.850114791330455,4.843913718678894,1,1,15.563527736279491
233,233,3.359562929381501,7.178783841165566,1,1,14.613457245431505
234,234,2.1685560729041855,1.1030057815249972,1,1,19.365011049310432
235,235,0.6735834957802722,8.415913093033828,1,1,16.96618140916476
236,236,9.481022331602013,9.964862078802362,1,1,19.721958106924816
237,237,0.9040115478501964,6.1578905960851635,1,1,22.32154169050223
238,238,8.10299058265154,4.011059555699228,1,1,18.430918290781353
239,239,7.299501166025481,0.0,1,N/A,17.93254613277226
240,240,4.647719635907928,0.0,1,N/A,14.415690600769612
241,241,6.082466424830029,9.105554864494174,1,1,17.42781944938728
242,242,2.4437917158570164,7.845610598433847,1,1,16.230128224345265
243,243,9.43055616185992,0.0,1,N/A,23.17761870253274
244,244,7.255312222593635,5.999256389377935,1,1,22.162211354517815
245,245,4.195311247224139,0.0,1,N/A,16.959769203920914
246,246,0.8787442405519974,0.0,1,N/A,22.06002723171511
247,247,4.553759804003885,4.3985343283639535,1,1,16.333979188065577
248,248,4.374627278810186,5.532412899115714,1,1,18.168027762708768
249,249,7.755189699435837,1.8334539864617205,1,1,16.780519453398504
250,250,6.455689256370944,1.22278826508034,1,1,19.555416883652896
251,251,9.90588666977356,7.379194310313152,1,1,20.412208057772784
252,252,0.21839169982774131,5.532868959803623,1,1,18.34136059602253
253,253,9.143811680922466,2.613635902432494,1,1,20.844299119369175
254,254,7.555034275177702,5.687687868975107,1,1,23.283857334398917
255,255,4.327311916068339,9.265701728036905,1,1,18.735750946502197
256,256,0.42538876559926386,8.018983656383151,1,1,21.170328395292813
257,257,9.374989755774276,9.480559186635421,1,1,23.762301798492793
258,258,2.089124775899267,4.533914859509993,1,1,14.651355159568743
259,259,1.5383325063381525,3.6459848880141132,1,1,13.195227427501386
260,260,9.334099113372664,1.1280310414834915,1,1,20.481642809467672
261,261,6.32834718964117,7.659672752568495,1,1,23.537322802423777
262,262,7.572190390789807,7.683538436699092,1,1,23.834437347155315
263,263,8.687797136057569,0.48457244770562014,1,1,15.907981726607407
264,264,4.639766972493612,2.696904915791276,1,1,23.56211853386357
265,265,4.054075533224548,0.0,1,N/A,17.13964337743591
266,266,3.636957386967641,0.0,1,N/A,21.328427768492
267,267,3.4048842189484105,4.184723004336197,1,1,11.892084612100518
268,268,7.974741933498874,1.5475634619985845,1,1,17.63998411977881
269,269,7.511055568907547,0.0,1,N/A,19.34502268550274
270,270,0.6668946480143634,0.0,1,N/A,14.74376639464571
271,271,9.884867898059186,5.2147744878263005,1,1,15.810232285855696
272,272,4.242195272408825,6.618637392210788,1,1,22.73383415538775
273,273,1.0104231834945254,0.22340461321420646,1,1,19.177418568165802
274,274,6.069286415164008,3.4767226012848007,1,1,18.396785925550795
275,275,4.0851231271560815,7.300855184798411,1,1,19.752361713506495
276,276,6.774660706639476,5.518801838217337,1,1,17.567572716713272
277,277,6.49709735333579,0.0,1,N/A,20.2444632087918
278,278,1.5282180713854954,7.132483880060805,1,1,21.7344051029623
279,279,8.666088527276665,7.372096883728708,1,1,18.611217580275085
280,280,5.459307269392445,3.7187241391474024,1,1,9.548854050545684
281,281,9.881371262845102,1.5405354455355813,1,1,22.744353362343404
282,282,9.783329208432047,9.978831864712372,1,1,23.218632826143796
283,283,0.6843628651711609,6.174419728471946,1,1,9.309700084233679
284,284,7.750041163315248,4.088118227116453,1,1,23.940506755630118
285,285,6.717687036815674,4.29873977332185,1,1,19.24590557570269
286,286,7.532416353919496,6.509632655250259,1,1,23.21382150801795
287,287,2.813957006599652,5.126521445917133,1,1,12.015296943116645
288,288,4.636412390446921,0.0,1,N/A,18.12631331005423
289,289,8.909754153599819,2.0201337983980237,1,1,16.2284707073663
290,290,4.483832931588601,2.927030756390364,1,1,23.715081071457853
291,291,6.706172264685746,7.009216190777517,1,1,17.755729767561178
292,292,0.8769659114606387,7.327118105287066,1,1,18.609433711140596
293,293,7.2213935015950215,3.4891116388542365,1,1,20.990608728301062
294,294,6.685090725424896,4.974689160539968,1,1,18.263297339027794
295,295,8.638419132003648,9.371442368190122,1,1,20.1346877040374
296,296,3.165695743599519,8.280154652759869,1,1,15.11388051931452
297,297,5.805358025488795,0.0,1,N/A,18.00542251730115
298,298,7.719282387891151,4.891153205417096,1,1,18.26471929650291
299,299,6.87610862801196,6.188660177734729,1,1,18.661626899709656
300,300,6.152143053115218,3.710272815106035,1,1,11.68833421936988
301,301,3.642676166312878,0.3889642566384599,1,1,13.337400024734432
302,302,4.849947771116466,0.0,1,N/A,20.33891199914875
303,303,2.0420093515153956,3.801797119385868,1,1,19.16855765115193
304,304,0.6288217849077737,3.78751579428253,1,1,6.437054065844312
305,305,1.1350217201029045,4.638371065644666,1,1,21.89182167348334
306,306,6.955382987134064,8.885570137232536,1,1,21.6465694623823
307,307,6.153402661016352,7.067855445006044,1,1,19.686656934721537
308,308,0.6386243290249038,8.210875540370786,1,1,22.36495586658824
309,309,3.568158190846895,9.08843994011746,1,1,22.12017469517943
310,310,1.5190041929358078,7.0591582305308975,1,1,11.127594381580394
