,Job ID,Stage-1 Processing Time,Stage-2 Processing Time,Stage-1 Machines,Stage-2 Machines,Due Time
1,1,9.096115814531696,5.107663106882655,1,1,19.916805804326888
2,2,0.5213106674940471,1.4550517105048733,1,1,14.427818323479762
3,3,0.20585110733716383,0.0,1,N/A,17.228799687330206
4,4,4.51936111964503,6.703459183990312,1,1,14.633601737812844
5,5,1.0495944103626653,0.0,1,N/A,10.700483831774998
6,6,1.4281303151336644,0.0,1,N/A,7.700032669500885
7,7,8.068276112748233,2.699022184702372,1,1,17.970159776253844
8,8,4.015942349412114,3.687893502318519,1,1,8.449730937349397
9,9,1.8024320495604573,7.484093157356549,1,1,10.936726173198956
10,10,0.894462768680705,0.0,1,N/A,20.64543219753631
11,11,9.555305371171803,2.1742934082411947,1,1,16.623337663790448
12,12,0.12861902609207387,8.744978657598388,1,1,19.767687815781272
13,13,7.1299735488837745,8.22866455542012,1,1,18.332113165730114
14,14,5.1826414558532,1.2026489316544209,1,1,20.11982855701819
15,15,9.15301195129189,5.589357946291759,1,1,23.93756958480343
16,16,2.0346947018637995,1.901934124045337,1,1,13.58224388058219
17,17,0.12973252905728594,6.219025830280941,1,1,12.24717187604281
18,18,8.026363876775953,0.0,1,N/A,14.854463083977018
19,19,3.451645125663436,0.0,1,N/A,23.80500897209314
20,20,2.5642845414263817,1.4974987369484094,1,1,18.962978093601155
21,21,1.9290439618577537,1.1544750665024972,1,1,11.582030670499414
22,22,1.1981616924746974,0.8451868530495177,1,1,11.557723986610558
23,23,7.308091723230586,7.300720357744099,1,1,23.729823245648483
24,24,1.0266627130018502,5.1080160154994285,1,1,14.536634704061388
25,25,9.49524446275565,0.0,1,N/A,11.233321155402944
26,26,9.695535051145006,0.36958108513148735,1,1,16.760540506004187
27,27,6.086634968402658,2.3140388936719436,1,1,19.255181013612567
28,28,4.45201333522861,4.236110193694696,1,1,17.06481911248577
29,29,1.4330860826878,8.574990993236117,1,1,23.167682843829283
30,30,5.520417752843022,0.0,1,N/A,23.276718429653677
31,31,5.0258612148718065,0.0,1,N/A,16.147001557958216
32,32,3.9584551048776193,8.459825126545024,1,1,23.701684411383212
33,33,9.085708879308786,7.7400790129197015,1,1,22.6628536552601
34,34,5.126816723113741,8.107270009938347,1,1,14.600006373850421
35,35,2.1324317751901867,0.0,1,N/A,23.69981666636199
36,36,0.7444981665818984,4.922151859230853,1,1,12.359282576717735
37,37,6.666174089320691,0.0,1,N/A,21.85846729584585
38,38,0.926741341709314,8.709289377017885,1,1,12.993243545450913
39,39,6.736618651382211,4.409774228329062,1,1,23.41383828132567
40,40,3.9901409490555984,4.395723342581882,1,1,10.098604397681692
41,41,5.326265936004598,9.789061909342546,1,1,22.582384590821956
42,42,8.021159982509154,0.0,1,N/A,16.99425768477088
43,43,5.141607520498173,5.417751868831927,1,1,19.38629199488431
44,44,3.5457390315702297,5.8559385598248745,1,1,13.68473674904574
45,45,1.6215415510132114,3.873284704209672,1,1,16.31590667677219
46,46,8.972257725560128,7.815211179142901,1,1,23.329687220486356
47,47,5.78225980779027,8.234473966528652,1,1,18.4113067239428
48,48,6.479353983853557,0.03946589136535339,1,1,16.695788379296413
49,49,2.9884277289276264,0.0,1,N/A,13.312958832800653
50,50,3.4358955855560493,6.263183074545019,1,1,21.632043235140067
51,51,0.08444289533422467,9.6570192299512,1,1,16.894827258094384
52,52,7.624800722339638,0.4840653322201316,1,1,22.959854344137113
53,53,0.730210142058807,9.854362845714261,1,1,11.510583573437115
54,54,3.965438058998856,7.602776973299605,1,1,19.86864135026329
55,55,6.192800173066062,5.859504416024918,1,1,22.82363660848713
56,56,2.1160658008122524,5.8699299609913504,1,1,9.040700799778874
57,57,6.27756201722846,3.920064550116382,1,1,22.90402571752913
58,58,3.748066516946289,3.148171533469355,1,1,12.586990273151045
59,59,4.9412889281244805,4.45493215587074,1,1,12.614922920756312
60,60,6.666001578904215,3.8562544548158737,1,1,21.86185155655041
61,61,7.704472533420892,7.723910657759153,1,1,16.369848623839165
62,62,6.554942828506917,5.190926161236003,1,1,12.462978768659498
63,63,8.151208080049026,5.658886000410305,1,1,15.994652088445395
64,64,7.81756470033944,5.5929670713038835,1,1,14.096324627992043
65,65,7.497921300536702,1.0141409502225673,1,1,9.217856869036254
66,66,8.796997665214432,0.4551262108324472,1,1,11.145917723385462
67,67,1.68561003397373,5.58698449433613,1,1,14.530118406164927
68,68,5.843170938346988,0.0,1,N/A,23.4552419985056
69,69,3.4306943627624955,0.0,1,N/A,10.871041572611707
70,70,8.901033083335957,6.933314674982432,1,1,22.983745637883068
71,71,1.2260142359160775,8.419844195036951,1,1,23.715506689696504
72,72,7.969840569314525,9.15306505317139,1,1,22.302674438378283
73,73,7.636093024653712,8.868197561350708,1,1,20.703182477500356
74,74,2.5504525731438807,2.1661395341995595,1,1,8.573760551742208
75,75,6.524109747808008,3.4982090154685306,1,1,22.44488890762834
76,76,7.460375785021281,1.7426129623554143,1,1,15.12751556895686
77,77,2.969565812944004,6.58963734145524,1,1,21.269130629688497
78,78,6.368541330758081,9.173065233007847,1,1,19.285443389080598
79,79,2.5344484368364464,7.661501617895356,1,1,12.606921215164144
80,80,7.579943107296938,3.892710770033384,1,1,18.037572733946572
81,81,8.08993487971107,5.370577234451654,1,1,16.284345867913732
82,82,4.325206381065783,0.07675630038592285,1,1,10.433237662264442
83,83,0.29608260866336833,7.632731659978268,1,1,16.733948961388435
84,84,7.493940817225574,8.661467446009688,1,1,20.623858607921186
85,85,5.249108787339932,9.9536900527775,1,1,18.452920228678853
86,86,0.11314054794399508,3.0977157194904184,1,1,7.641625407693464
87,87,4.4921098767836485,8.802012128875926,1,1,19.70168966662046
88,88,1.5287870417222837,9.435331447810594,1,1,20.48820690285074
89,89,4.123956763560824,0.0,1,N/A,14.394564864594045
90,90,0.6149473839276842,5.1987613487493975,1,1,6.2268933307909995
91,91,2.349794700302912,0.6380233059380325,1,1,23.01592837311344
92,92,8.36645928174768,8.844844016646094,1,1,23.149703320372495
93,93,1.5144965143393319,1.199576644473317,1,1,6.099264354108786
94,94,6.88907774141419,3.2055633899382387,1,1,23.291446113382857
95,95,1.6096414762339994,9.729590169835271,1,1,23.865639871881214
96,96,6.266366098083117,0.0,1,N/A,22.82604340749108
97,97,8.826193343947873,4.690453023226111,1,1,16.853818391441894
98,98,6.114898813519315,0.0,1,N/A,15.571799238040043
99,99,7.076646636443923,8.743365244693264,1,1,21.697295391326314
100,100,0.647856223458666,9.739887848317148,1,1,16.199404189276702
101,101,3.0303761890204695,6.651840742228664,1,1,11.52785936379662
102,102,7.6151836157470845,2.8198912952834663,1,1,17.553453350487388
103,103,9.55726186412205,9.306971399399432,1,1,23.435322331812202
104,104,1.436620651000028,8.324126466154349,1,1,22.03080924556096
105,105,9.645833858031006,8.426376229145443,1,1,23.476175914323928
106,106,8.605207788940753,5.033419706347923,1,1,18.323062424144943
107,107,5.63120835561488,0.0,1,N/A,21.660089667855914
108,108,2.995023318317005,6.645630996434281,1,1,20.422851298062348
109,109,1.9171591360652218,9.394640932081748,1,1,18.566624785395586
110,110,4.789322113590583,5.090008861164615,1,1,20.517777700555207
111,111,3.4311650259307003,1.7158314747169856,1,1,20.17100078793389
112,112,1.3708665776200324,9.697006358277747,1,1,17.757717892624825
113,113,3.671282378776004,1.632352988137491,1,1,22.799111610872295
114,114,5.779325093162607,3.4972316848728813,1,1,16.679479734095878
115,115,3.2936385758936337,6.411034638316094,1,1,12.545137769302828
116,116,9.965464283182023,2.997211797992291,1,1,13.80712009512349
117,117,4.606039470590351,7.891922962196087,1,1,17.6507971389526
118,118,6.4001255347831005,6.2174359256732945,1,1,13.872945862063066
119,119,9.056384065920911,2.099207199661609,1,1,12.977506010243532
120,120,4.7071449490762305,0.0,1,N/A,18.337699692184838
121,121,5.317475103257853,3.6445611772465067,1,1,17.297937387836114
122,122,0.43609321228131326,5.267655646287013,1,1,14.485221969940568
123,123,9.883137233133633,3.0564680119122647,1,1,22.245650480825823
124,124,4.823420039754476,4.665127351893079,1,1,15.697276323470327
125,125,2.879081184784782,0.0,1,N/A,9.250923546619438
126,126,6.617273437362172,0.0,1,N/A,20.515874126914333
127,127,4.128877755248137,9.952624077521193,1,1,15.143339913810221
128,128,5.478788793620825,8.616756646580061,1,1,16.937699670050996
129,129,8.143628463829808,4.370934550704254,1,1,22.326577445307223
130,130,1.0387529147947139,6.25144648138601,1,1,21.33960742887054
131,131,5.8759225704123095,1.8144374366164906,1,1,18.063250573255768
132,132,9.544460786862864,0.5597318023431763,1,1,14.658536544600333
133,133,2.1064979394569807,8.415172517278904,1,1,14.470244527652648
134,134,1.7525380024694714,6.0234729650136,1,1,20.966548494183655
135,135,2.3215847205374907,0.0,1,N/A,8.878316200707664
136,136,7.363097899332594,6.304692017221062,1,1,16.689916040843706
137,137,1.640732698536842,0.0,1,N/A,21.673186028537316
138,138,9.505615742629006,0.0,1,N/A,21.889449157693967
139,139,7.178042558738259,7.486731185194522,1,1,21.14822399016544
140,140,6.69789192176729,3.459983433011776,1,1,14.338718298944423
141,141,7.605918471391212,1.1338987213738194,1,1,13.906022442583541
142,142,5.537964286291498,0.0,1,N/A,21.414659554233392
143,143,4.941227204073957,5.121522545937599,1,1,21.90520372035624
144,144,4.527778313480103,5.53966010219903,1,1,23.84118639574305
145,145,5.353898469557836,3.2785961355904125,1,1,18.09774151015852
146,146,1.0706707316973207,5.555374371507686,1,1,17.752880179275778
147,147,3.8779464962169197,1.6132194169832048,1,1,11.144225784894168
148,148,5.935723285703208,7.326837721857514,1,1,18.28581603689092
149,149,9.142263194071562,6.020115678351844,1,1,15.780050676889276
150,150,8.667679928023206,2.0622014918755616,1,1,21.57994335704729
151,151,2.689045592306271,1.2607615493765423,1,1,13.438472517141868
152,152,2.892568304196269,6.150382738497205,1,1,21.15242587491224
153,153,8.688550487967921,0.6392568116665198,1,1,19.386216902237358
154,154,1.682162063022976,0.0,1,N/A,15.826902001653536
155,155,4.327998924032874,7.464384371195437,1,1,13.507324429341
156,156,9.716742011071805,4.766954097032359,1,1,20.602990749684107
157,157,2.6585542413541563,0.0,1,N/A,15.832450243632927
158,158,7.074901645205845,0.8235498451094658,1,1,22.84243253138448
159,159,7.026431447295179,0.3230867688250083,1,1,11.199162532299079
160,160,5.898929366260446,0.0,1,N/A,23.134701563327837
161,161,5.395523769605047,5.37110307298159,1,1,18.550251225236217
162,162,4.783214632842058,7.191662343232686,1,1,21.419938949798507
163,163,0.39099365258838836,0.8776631102881993,1,1,9.535088895182952
164,164,6.757062351006661,2.6372968170067788,1,1,10.873348685705016
165,165,0.2893625521650023,9.7368125819029,1,1,11.863080064781174
166,166,0.749442300909039,1.364812157420402,1,1,21.30713988832676
167,167,4.391311710822642,7.731034124238766,1,1,15.702198258549783
168,168,6.927144077505362,1.1945647579030183,1,1,23.728973976107874
169,169,6.103179302906401,3.297833349939514,1,1,10.690037614459468
170,170,9.283712136812467,0.9458348308870324,1,1,15.617724994711807
171,171,6.426411641601777,0.0,1,N/A,17.662307292038218
172,172,1.0390639658517464,0.0,1,N/A,14.532125075811901
173,173,4.503445216024612,1.2780130596969197,1,1,13.748263116336975
174,174,5.305859605867377,4.548689099815357,1,1,19.3896546497078
175,175,7.740157401064069,1.5567565599527045,1,1,19.74700859778595
176,176,1.2461313370120464,0.2820218001227903,1,1,20.39742011612173
177,177,7.733776529192076,7.08868441771887,1,1,21.030538520420034
178,178,7.085837361252524,0.0,1,N/A,15.205276047906777
179,179,5.4248966444495,0.7244242336429896,1,1,23.82319568929445
180,180,0.3340881969823939,6.7296853590880215,1,1,13.332689013202712
181,181,0.3769821744593205,4.31433618697465,1,1,6.603587024952217
182,182,5.830555894808861,0.0,1,N/A,22.257292573265055
183,183,5.665588982954329,3.715390340878507,1,1,13.311659231196998
184,184,8.77368654462388,0.0,1,N/A,15.23327942994835
185,185,9.874218842120925,0.9987708964333553,1,1,12.099019789213557
186,186,9.20324702263186,8.144494349290088,1,1,21.615353943390538
187,187,1.0576461510214274,0.0,1,N/A,19.318841533336844
188,188,6.158308037211344,0.0,1,N/A,14.174961866990369
189,189,8.47726251494587,5.733717748544217,1,1,23.50806526554151
190,190,0.6280327326793567,1.9785556999034903,1,1,22.15649257276243
191,191,1.6181922622616263,3.3027009580236855,1,1,10.566131302342132
192,192,2.5696019009643036,4.280719656971702,1,1,8.94109159135768
193,193,6.105826593285642,6.032368541675712,1,1,16.691241933237325
194,194,3.539964627706369,1.9884712337551547,1,1,11.298942259449483
195,195,6.065005122173188,4.726061991489839,1,1,18.975093450425895
196,196,6.7299925682488615,0.5703484418333005,1,1,9.191905902325379
197,197,8.999040540931952,0.0,1,N/A,22.224683534929135
198,198,4.106132849590396,0.8914370375765668,1,1,8.687245659127417
199,199,9.236338054731469,0.0,1,N/A,20.881272171130792
200,200,7.038793770767602,0.0,1,N/A,22.156662723034344
201,201,0.47011500641383597,0.0,1,N/A,14.237106559660734
202,202,9.792914538820805,1.7312929554504997,1,1,19.937510211550336
203,203,2.3057249823138823,4.716384380819722,1,1,19.211021820096033
204,204,0.701766666743161,0.0,1,N/A,12.119062430948874
205,205,6.617240152914939,0.07652342771201637,1,1,15.818007814954552
206,206,4.28368334159154,7.230873249187687,1,1,18.7937052162811
207,207,0.5324982652453969,0.0,1,N/A,23.89938493852768
208,208,6.197222968361341,3.492136695874286,1,1,15.43834916414833
209,209,5.569476140114695,0.0,1,N/A,17.96421120682229
210,210,6.4070194395208855,3.6800295899797817,1,1,23.468347140449453
211,211,2.3819245053329583,8.720798195375945,1,1,13.290028489744001
212,212,7.790501946433233,1.1872339617678784,1,1,11.965546885797519
213,213,1.757281350010036,0.0,1,N/A,22.541556953730975
214,214,5.7551228904528875,7.920988136008234,1,1,21.546887900421297
215,215,1.542526154484265,0.0,1,N/A,15.429351004196201
216,216,5.152136640675428,6.6593800118364594,1,1,22.612091729001712
217,217,2.272076444374563,8.28741182760992,1,1,17.844352218278548
218,218,4.825653048753002,9.35648111248875,1,1,14.36737721540817
219,219,3.7945439541914006,0.0,1,N/A,8.515766758766407
220,220,1.0720614495884895,7.346351031366293,1,1,10.778272057691993
221,221,4.860334888683352,3.0556163276640005,1,1,19.508354577482734
222,222,5.541234960480443,2.203784872407063,1,1,10.575964128995489
223,223,4.201714172724507,0.30691785506176905,1,1,23.541076163393225
224,224,4.344224024439308,1.2553335446087488,1,1,18.171872000281237
225,225,2.5869850505918057,5.7159717296051955,1,1,15.29581968064843
226,226,5.5315899217957885,1.9842950033906503,1,1,13.536919387221626
227,227,6.9695172197295685,6.6778403965453155,1,1,21.862508059506077
228,228,0.296453358870854,5.561761404237439,1,1,10.591270543803894
229,229,3.971948360486431,1.3820863088667124,1,1,10.911515409443687
230,230,7.5781008451343945,0.0,1,N/A,21.41677833100602
231,231,3.9615859164667864,9.94235991603536,1,1,20.192958564601696
232,232,9.936652240629314,5.63116098451344,1,1,20.962164444555594
233,233,1.4161301134379412,2.4728404875817156,1,1,15.219624207409776
234,234,9.232203114739825,6.170966716148465,1,1,22.248673914158164
235,235,4.273776044548861,1.1977286788612973,1,1,14.822340325762827
236,236,6.182449135504875,4.804808657997168,1,1,12.202318601659037
237,237,2.3976702797689176,0.0,1,N/A,22.052403591649686
238,238,6.4574597742394975,5.050717656493012,1,1,12.704402531254733
239,239,6.779194227377337,0.0,1,N/A,12.118466432294111
240,240,9.80294926520922,0.0,1,N/A,19.754874233315874
241,241,2.159460702129704,0.675034577236655,1,1,22.942801740332616
242,242,8.477253696708267,0.0,1,N/A,18.59052924289726
243,243,3.9472554112138667,4.088202931385203,1,1,19.470113119981605
244,244,9.369161122798365,5.866344883116936,1,1,22.538117629146527
245,245,7.140736051979365,1.292134638020268,1,1,10.860755523412209
246,246,0.843061633931772,0.9600053003843556,1,1,21.919429629279456
247,247,8.104376749799066,0.0,1,N/A,19.042713782795136
248,248,9.0435420809456,7.971556018084391,1,1,21.857982567128428
249,249,9.585559663535761,6.323652394735127,1,1,18.201898419678795
250,250,7.611300875041134,9.108266550103862,1,1,17.152562347356763
251,251,0.31051905505316446,3.75253638970916,1,1,9.754614746236248
252,252,6.6636903691022304,0.6601802589243355,1,1,10.064819557863244
253,253,8.308532050473666,9.790409799834482,1,1,23.56045872416094
254,254,6.323497943837722,0.0,1,N/A,16.789826339679315
255,255,1.547836224811232,7.630204160755687,1,1,22.682160262793168
256,256,7.550832719757025,0.0,1,N/A,13.2160606984839
257,257,1.091596257352928,1.1660168433909046,1,1,21.932067554264513
258,258,5.287158709400095,0.3246897376796709,1,1,22.888967074253383
259,259,1.7429658921842839,9.426140173648292,1,1,15.198758500301874
260,260,2.7468528969704975,3.0723320672802403,1,1,19.55738706152507
261,261,0.5280046166911834,0.0,1,N/A,8.308589109484151
262,262,1.33140464658151,0.622134613162385,1,1,14.335287911059535
263,263,9.91752283482979,0.0,1,N/A,20.456286311142673
264,264,2.0417088232105574,0.0,1,N/A,7.542851282640067
265,265,9.77342293055523,6.412178954553685,1,1,21.804607376255277
266,266,1.2323550300895847,1.4762345408850897,1,1,4.677401984941568
267,267,6.876391822962967,2.3015839015536352,1,1,23.084445759335736
268,268,3.558187469120707,3.4040217772634627,1,1,21.443377461097164
269,269,5.092734041015873,3.375508890947707,1,1,13.214166575124494
270,270,9.535943006088742,0.11849698250373297,1,1,13.949625896950732
271,271,9.016405088971261,3.4850669406271653,1,1,21.358534894648766
272,272,1.4658402169747453,8.661054135687117,1,1,17.63691113791197
273,273,5.68337474079671,0.0,1,N/A,19.38026381361245
274,274,1.9786863888742345,6.2341275239286995,1,1,19.424845520606482
275,275,1.2968889828036434,1.0978927131490268,1,1,17.026984420387983
276,276,1.6785173913227236,6.43324904404941,1,1,18.799141285980774
277,277,2.4406802483259895,0.0,1,N/A,13.213455916154157
278,278,3.3949367219885938,0.0,1,N/A,14.601113753235397
279,279,7.735674259374106,0.0,1,N/A,14.894586278299474
280,280,6.60999039813453,1.7642514744895565,1,1,10.005248470739886
281,281,2.392498571610343,5.75070226375847,1,1,20.28879496471677
282,282,1.9738260441703748,1.1326016330468247,1,1,6.5695732554190975
283,283,9.182280104376677,0.0,1,N/A,20.599757629642927
284,284,7.0384826833107255,3.473511752284253,1,1,19.08047833849995
285,285,8.602685134578982,0.8078756931453446,1,1,17.743560099976214
286,286,4.442172316051606,2.4361689543330725,1,1,14.536782319636266
287,287,5.359524814212493,7.434767795188026,1,1,14.787749847784378
288,288,0.09232876626469988,0.0,1,N/A,14.643910321474353
289,289,7.729169928496956,3.4959702097779335,1,1,21.206424616611987
290,290,5.0566405724386225,5.409915217354355,1,1,13.165677953001413
291,291,0.9475750732750743,9.077177695285197,1,1,23.4925471487561
292,292,5.618201510116584,6.225806742512883,1,1,14.966014991311408
293,293,8.66311222305984,6.025712644907272,1,1,17.813737875871247
294,294,0.38931348388431597,5.882703446797341,1,1,7.209261769395705
295,295,3.1073144185151005,6.309340200535807,1,1,16.500175651017344
296,296,6.881026432158775,0.0,1,N/A,15.627663570762719
297,297,6.145148281801652,1.3532631865784595,1,1,16.70376876175838
298,298,3.647887944408521,7.72703540207541,1,1,23.21208442495746
299,299,9.313183828574346,1.3254612245839814,1,1,15.706556203734335
300,300,4.981012991711067,0.012603079599148304,1,1,13.791582821070666
301,301,3.9892591475385575,1.7066524240259684,1,1,22.44099958406575
302,302,3.917866927784679,7.879299742105631,1,1,16.407917429605966
303,303,2.9421272138284116,5.9859628025419465,1,1,11.024413423224022
304,304,0.9257555821012176,6.182865793077347,1,1,12.745129419783929
305,305,9.581786782060076,9.225506881606659,1,1,19.189873594415523
306,306,5.59109400079365,0.3745367776607633,1,1,22.40612766504192
307,307,3.9216227970818993,5.652064377528396,1,1,22.152617209949668
308,308,3.3821517922224267,0.0,1,N/A,16.193230792398154
309,309,8.511095909856044,4.2573300408377115,1,1,17.027203966382647
310,310,2.855001934979108,5.169739965595373,1,1,21.88165750694455
311,311,5.5193584212643865,3.806391214685223,1,1,11.43958697544808
