,Job ID,Stage-1 Processing Time,Stage-2 Processing Time,Stage-1 Machines,Stage-2 Machines,Due Time
1,1,0.4824797328943198,0.6425391115413126,1,1,22.00392065146599
2,2,8.43569971414918,2.8577864560531263,1,1,13.557162092985227
3,3,9.418292859135496,6.322564502540262,1,1,21.363231813886557
4,4,2.2206455098915368,8.044367426778077,1,1,11.514671913932169
5,5,8.737991648732214,0.0,1,N/A,18.66871787691085
6,6,4.70964519390418,5.048521248432888,1,1,21.3652065497933
7,7,8.122435108569912,0.28386367258733003,1,1,14.332134168703808
8,8,4.877905017411361,7.367840502675026,1,1,16.06582045181406
9,9,7.5537232618775505,1.6220439870848469,1,1,12.077945298204366
10,10,5.233570348481045,5.134541000260263,1,1,18.883508118705226
11,11,6.831513062904509,0.7718690022784813,1,1,13.900659147494231
12,12,3.920412562465443,3.2675189986433684,1,1,23.712320972946944
13,13,2.839962591594184,5.958404222212064,1,1,9.108747796968192
14,14,7.809780682063571,7.98672434647745,1,1,20.887108636536816
15,15,0.14050434455714522,4.5238927081224425,1,1,12.42651243697821
16,16,6.070176049637432,7.140693393926709,1,1,15.916654428563993
17,17,3.0514998246625713,8.151918372066705,1,1,21.662889051020883
18,18,8.401126964294608,4.214820678067647,1,1,22.54288525926079
19,19,0.4985257787453945,4.786354084367668,1,1,14.853295636952012
20,20,1.9928433225796915,1.2896825947334678,1,1,18.77595460713208
21,21,9.138278062865892,9.471247945453756,1,1,19.411879138085062
22,22,8.35430002529225,8.576592300034774,1,1,18.09830711398064
23,23,1.6268842892762159,1.6536634977609,1,1,21.64703780459921
24,24,7.071314068929919,0.0,1,N/A,17.422891828904113
25,25,2.5073662558846577,9.245075298807594,1,1,15.553470346209245
26,26,2.2044025694751035,6.335129454634099,1,1,20.853051147675536
27,27,2.3281339432059465,2.6716461260160895,1,1,17.836100877546905
28,28,7.7026204809994505,6.210498411739422,1,1,16.660354246046783
29,29,0.32888591887615837,7.764708665185957,1,1,22.163583663393197
30,30,9.249114670760783,6.779140731355374,1,1,22.037059951884125
31,31,4.5828320781307,0.0,1,N/A,21.4901776903132
32,32,8.359935667670689,7.630947490150169,1,1,17.459373507359878
33,33,1.6096473573556447,0.8925188074147128,1,1,18.749059703955496
34,34,6.238288933820105,8.959559002582765,1,1,17.250643318943414
35,35,9.334107929524722,9.15993609668313,1,1,22.595502871571696
36,36,2.106216588449458,0.6524295969819216,1,1,8.381484382911395
37,37,4.627695699199068,3.229179505485522,1,1,13.443131947735175
38,38,5.712341764006304,0.08808117302096408,1,1,17.72866337688378
39,39,1.8124331538251004,3.7801510775211455,1,1,15.501210093541209
40,40,9.966337342623921,0.0,1,N/A,15.672465257283672
41,41,4.212947092043652,2.2637804798223637,1,1,12.716387695556467
42,42,5.976155268128447,8.831973683878028,1,1,17.446640380062725
43,43,5.796058504554341,0.43910384986121986,1,1,13.376138356281297
44,44,8.971605361195591,0.4308686039729881,1,1,9.714658858748482
45,45,9.262737559913552,2.1395397971423833,1,1,16.17887774278204
46,46,4.45638088104075,0.6194282869571599,1,1,23.717987446318332
47,47,9.972289883230564,8.031546830679364,1,1,23.095309835823606
48,48,1.7933703573849191,6.776214701404159,1,1,21.64769740384974
49,49,9.87106530302459,8.42077885783387,1,1,23.054052626677525
50,50,8.596806629589347,2.1701296241955292,1,1,17.409822426132187
51,51,1.0380151967637496,1.5851657642459582,1,1,23.055457850788798
52,52,6.25558257080491,3.911736615420782,1,1,15.009336319034192
53,53,1.085893462895089,0.0,1,N/A,23.869275819864235
54,54,0.3726743111516162,3.3899864240312496,1,1,5.235026957862514
55,55,9.495286945527457,7.735211584801033,1,1,19.65602905240591
56,56,0.9091176972093873,0.0,1,N/A,18.398576891262337
57,57,3.9492200818334733,0.0,1,N/A,17.21612359181899
58,58,4.199249951470728,0.0,1,N/A,15.374414280887827
59,59,8.316789669402723,6.933509617262957,1,1,23.40016989260787
60,60,6.794968431864471,5.061401823821817,1,1,16.521575878738574
61,61,2.614782080430401,8.666800550042307,1,1,20.393218648456887
62,62,4.027040705906164,7.161638455372465,1,1,16.335366878023194
63,63,0.8081096709378577,0.0,1,N/A,20.08602802404878
64,64,4.231714094587354,3.0747073893975205,1,1,22.905206648427136
65,65,2.7468879175176184,0.0,1,N/A,19.78737232633516
66,66,2.4186134636254586,9.55616390406498,1,1,19.15630574331658
67,67,1.078544257678149,0.0,1,N/A,14.951604636703404
68,68,4.0361716109645425,2.6776220990655686,1,1,18.287597451660034
69,69,4.259415797506399,6.013399497598736,1,1,10.433189818788552
70,70,3.198678672320967,4.877373386942118,1,1,19.785136928908322
71,71,6.846845207755421,9.67206912583724,1,1,20.874574348848473
72,72,7.346174132582112,6.018029361509517,1,1,22.361928679815946
73,73,1.801784847309602,2.202034979109224,1,1,14.93458813163567
74,74,0.2738566539966225,2.3930887493862785,1,1,8.62998545844577
75,75,7.572954442164437,8.73238947210561,1,1,23.91296237994927
76,76,2.227859643276685,3.6352620049086015,1,1,9.40368440403012
77,77,1.0679924820205444,8.164206163226154,1,1,10.654236243539536
78,78,8.211742795243442,4.264354257144859,1,1,18.76692769737386
79,79,5.6620498968785995,9.798708929452328,1,1,17.795976946693063
80,80,9.576591709829144,5.688497809383844,1,1,16.19902339796485
81,81,5.071948377480266,1.135379996643615,1,1,8.935263570981569
82,82,4.589643659183565,4.405388621114633,1,1,18.196010631223032
83,83,2.3454228621293827,0.429551754882036,1,1,20.381263093595873
84,84,5.688663368613325,9.926596678921602,1,1,19.424684868816076
85,85,3.0877497937017417,7.638678167483443,1,1,21.210896501501477
86,86,5.5711059106379315,9.303334755992221,1,1,23.275205936752357
87,87,4.247603013172371,8.930914062732905,1,1,16.667457403758803
88,88,0.06347900933596606,6.754222920252209,1,1,11.055291146076048
89,89,0.5293120039418697,8.857060931770034,1,1,14.07127233314407
90,90,5.7429079913543095,5.835779396504391,1,1,17.081812784898744
91,91,9.271455278184574,8.344914732739227,1,1,23.31913132995614
92,92,5.2299683890328925,0.0,1,N/A,18.268380009627208
93,93,5.603756767215275,4.395838203252099,1,1,14.70211917396991
94,94,0.651270761569136,9.630895022929801,1,1,15.802385554466554
95,95,5.636212031911326,2.1503429650934014,1,1,23.315748867981558
96,96,2.8538310042276462,5.299124831105171,1,1,13.216502735482418
97,97,6.720464727193259,3.096615170402255,1,1,22.507851385132316
98,98,2.775199211096945,8.877499506697827,1,1,13.197342046924948
99,99,6.865142618978858,0.0,1,N/A,11.218034064183698
100,100,5.764511890325652,0.0,1,N/A,23.757825969715974
101,101,6.032975367310377,0.0,1,N/A,13.935775024681362
102,102,8.111230481170196,0.0,1,N/A,23.202262325427185
103,103,5.803079009231052,9.001440830353468,1,1,20.598675323647992
104,104,2.0016148093799258,5.456333188653293,1,1,17.590167280721232
105,105,0.6931450345521739,0.6080916098478506,1,1,17.279771617478367
106,106,6.54232158307022,3.691232821946225,1,1,15.575055012794703
107,107,1.0981316098633243,6.384974942345652,1,1,22.54710556059799
108,108,3.8159990498799043,3.072995454686651,1,1,13.318793211498807
109,109,0.8367413454375894,5.862421407192439,1,1,13.713014082766895
110,110,9.171200827841396,9.928558700972632,1,1,20.206257216083788
111,111,4.861336337629653,8.825745954246468,1,1,18.45498359429583
112,112,2.5111941425287823,2.4115122575469163,1,1,19.55065447304979
113,113,1.5972535034177182,0.3750566395644839,1,1,19.30600912818885
114,114,8.609969967256589,8.809391445260058,1,1,21.057068568077497
115,115,9.25399539930737,3.7667550641383785,1,1,20.3653116278112
116,116,4.253766988297159,6.06246769486083,1,1,13.190348241460475
117,117,5.5613178412669795,0.9378708582675566,1,1,10.243797722380727
118,118,8.554966112880269,9.707919702276733,1,1,21.368028968814066
119,119,9.74228471455769,5.831221765314517,1,1,23.789014941394147
120,120,5.122697980515869,9.450995402933714,1,1,19.54146481408944
121,121,6.91910786796504,2.2093295374313024,1,1,23.590412006376276
122,122,9.319242542146323,3.607119297191862,1,1,19.67272799051696
123,123,7.240591630898564,1.2127503762447012,1,1,20.729702239662444
124,124,2.3088112832417895,0.25581643246057384,1,1,5.325910769922077
125,125,4.6537216264851935,0.9825311715026996,1,1,11.522860010600496
126,126,3.880584931055985,9.131481098205326,1,1,13.400054069610437
127,127,5.014427082842545,2.9672955343445673,1,1,16.596964387814864
128,128,8.328582073457401,0.0,1,N/A,19.452707158665106
129,129,3.581059111752195,3.517938668453391,1,1,10.691690954261091
130,130,2.6916574332893117,0.9647124353987224,1,1,19.02869695391239
131,131,2.713382244676852,1.875317789345331,1,1,18.668731419373287
132,132,5.791116090769287,0.7287960078505618,1,1,14.793857933479071
133,133,6.252842123339396,5.524310357972193,1,1,22.698830203626997
134,134,0.5203368406949982,4.066235749168734,1,1,11.299493367606518
135,135,0.12399079738434682,4.999809165516641,1,1,7.104915849913918
136,136,0.11348082723716346,2.9194867451779585,1,1,19.78280742897534
137,137,8.733950057429885,0.3092855142315176,1,1,16.030115956183174
138,138,9.767943968763442,3.7085369735620644,1,1,13.690909049423096
139,139,6.505406125730526,7.638788192574756,1,1,14.239293398123674
140,140,2.77588091776121,6.6193822945607295,1,1,13.038538638306331
141,141,9.801694950543208,2.7015024423567704,1,1,13.67325140854099
142,142,5.675441937441623,9.742247183536467,1,1,17.930205471853935
143,143,5.140642876450691,1.4595421230845362,1,1,16.00210077204579
144,144,8.384639137667007,8.227325255999396,1,1,17.36204170957508
145,145,8.73883141892082,2.7109081962107338,1,1,17.188535577110216
146,146,7.080752251165071,9.161643818257316,1,1,23.052264079419867
147,147,8.328962285908766,8.321875714909318,1,1,22.59200250849774
148,148,5.002027282863807,6.098689036715247,1,1,11.881373843590659
149,149,8.937111951844685,0.0,1,N/A,21.633038852322663
150,150,5.940441701618216,1.93894268745337,1,1,15.763557456451586
151,151,8.462735636743789,9.296478218955288,1,1,20.41991005142664
152,152,9.630893770740881,0.0,1,N/A,22.150526418692806
153,153,3.6489601834176666,5.904283095491757,1,1,17.708948092283244
154,154,1.777893710031122,2.1077794258122706,1,1,12.889349494299907
155,155,8.789908153211549,4.44629281112304,1,1,23.70635563633639
156,156,6.086135980464402,2.230598633390972,1,1,14.691812276372723
157,157,0.33225138227709894,0.03500982117823681,1,1,10.260709042304228
158,158,1.2958143162918634,0.0,1,N/A,21.345003071152895
159,159,1.0086760220245938,7.927954793061392,1,1,11.805310232115492
160,160,9.908131765321773,0.5648619936982935,1,1,21.624328478099876
161,161,8.761217522521962,5.941651899741268,1,1,15.445795210678419
162,162,8.08951664915301,5.629154369030549,1,1,20.51839004252681
163,163,3.546981933911224,1.1317420510371035,1,1,6.573522188117812
164,164,4.675951198504751,9.41015648761942,1,1,22.90941807738536
165,165,0.2497850058672635,4.817132605474668,1,1,23.033284959423042
166,166,3.0739664625008767,8.146374023352692,1,1,18.427507368826817
167,167,7.566060013347441,7.0871511287956865,1,1,15.254268185314352
168,168,5.257686508304213,8.007470664409427,1,1,22.668091996818802
169,169,3.857087932298069,7.92922239715123,1,1,13.657091412198769
170,170,7.994022390303636,4.115867924187801,1,1,16.280754796986766
171,171,4.0353265165590235,9.73747666356527,1,1,21.57890243048467
172,172,7.099302861672863,7.048458357229115,1,1,19.345218949584122
173,173,7.749084053296844,6.04879319041665,1,1,21.958899961681638
174,174,5.629955929331928,5.643955609334817,1,1,18.07782463445048
175,175,1.0171537336869207,3.0168149234808626,1,1,7.848926636441613
176,176,4.842628988385089,9.548596499293701,1,1,22.31425296679228
177,177,9.725166144460458,2.5243554620565978,1,1,22.312759956703754
178,178,4.7741458597349915,2.7246750194256295,1,1,13.199574512028672
179,179,3.1322765069784717,1.416144309835603,1,1,10.734285701072396
180,180,7.446038062712831,0.0,1,N/A,23.928085364110096
181,181,4.477208505815941,4.936207048317636,1,1,13.071459300190304
182,182,7.530137903317035,0.0,1,N/A,19.656789951411504
183,183,6.89458072154765,3.7976491149590763,1,1,11.917009434622667
184,184,6.535956458194243,0.5076940952597442,1,1,18.039378727364145
185,185,5.965645417004493,1.8433252827863988,1,1,9.322278689079269
186,186,9.695615805019672,0.0,1,N/A,21.39534302806247
187,187,3.8450775817395897,2.8547494880742508,1,1,18.400642626442057
188,188,0.6772294333974627,0.0,1,N/A,21.135086677183146
189,189,6.785337017083829,9.01315963534985,1,1,16.142392483737375
190,190,8.799104180016503,4.510985142050046,1,1,18.09258796735171
191,191,8.947650691135628,5.9018986280123995,1,1,19.04419071175338
192,192,4.305804435936723,5.362930178706591,1,1,18.00774208999389
193,193,5.547505096622585,4.94968416740506,1,1,11.3591168792285
194,194,8.964002710427362,7.380147100596146,1,1,21.95643649136874
195,195,1.8722277402582088,0.0,1,N/A,11.948555581928762
196,196,3.6801529006024767,5.5601935583552375,1,1,14.624462457056985
197,197,4.025954025187632,0.18639473444362342,1,1,5.0255258698492025
198,198,5.7052871742479745,2.8210140105307158,1,1,11.952117427086096
199,199,0.11131047029338315,5.486702788315326,1,1,7.869195403519942
200,200,7.555090640052779,6.8246140134340125,1,1,22.2311062094013
201,201,6.734727321600136,6.505422086228695,1,1,21.678899131475507
202,202,2.592298900043528,5.60039473696608,1,1,20.366657209604572
203,203,9.888612078407577,5.569640753190617,1,1,20.104392482542337
204,204,4.23614644873469,3.820939253106527,1,1,13.697972879252333
205,205,7.713909671278657,0.0,1,N/A,22.924580136123918
206,206,3.3279942119482318,5.096395939820262,1,1,10.43030045675376
207,207,8.97200807875197,6.310391331138821,1,1,18.540793612673813
208,208,5.4678378599353845,6.372797607053143,1,1,19.410037281383477
209,209,1.7721080524799049,1.4492191864529103,1,1,21.695694714810728
210,210,9.960626254946227,1.8677266828691796,1,1,12.37411311868547
211,211,4.819828864412243,9.242330248250424,1,1,22.686279656216094
212,212,4.675710033364959,0.6264155651185732,1,1,13.07753451368479
213,213,5.320121220823766,0.7499675495234448,1,1,15.904388056927685
214,214,6.453964363789942,7.8570225460082055,1,1,14.521935345406874
215,215,6.670955629374254,1.7323068891645077,1,1,11.725736671754397
216,216,9.303402017293395,9.170070848717234,1,1,20.45614654536938
217,217,8.529498423981094,0.1972912519321257,1,1,20.26191033680392
218,218,7.135318105637216,3.969131164474984,1,1,22.62015523002845
219,219,4.78667369344334,5.509307050880135,1,1,17.059875699052398
220,220,3.5678891231771526,9.487145577234221,1,1,23.561112947007757
221,221,6.657038150023037,6.0865142557482415,1,1,19.385505565010572
222,222,6.9035054749962494,0.23368598509342142,1,1,12.27236618512988
223,223,1.9056222018440694,4.180194851070126,1,1,7.3809537648836985
224,224,5.108219714446118,0.0,1,N/A,22.498687537217606
225,225,6.745062683240778,3.8657799505891943,1,1,23.51670143857893
226,226,6.032288661442263,5.906539931715743,1,1,12.604179935839094
227,227,6.966636535705617,0.0,1,N/A,14.123284430385429
228,228,8.989108857463554,2.8275645493082524,1,1,17.764698642462175
229,229,4.187309723489717,4.1498983389254445,1,1,19.538817564461002
230,230,6.431404791871518,7.447721433583041,1,1,19.857914319908325
231,231,7.530679302358182,8.987341019980535,1,1,16.67942252859418
232,232,9.83940431222599,1.2536817385010424,1,1,11.164526537313868
233,233,4.8400069635262675,8.955417636234376,1,1,22.764990547340567
234,234,7.339159343496899,0.0,1,N/A,18.03899574135703
235,235,2.3615395938501624,2.714008801439123,1,1,20.572316713517864
236,236,7.959400186852177,0.0,1,N/A,20.09571985457623
237,237,3.281353546248653,4.282898327964747,1,1,22.757828895403023
238,238,4.803162963419066,8.42502915961289,1,1,15.26957737146633
239,239,9.291945094798661,0.0,1,N/A,20.391154728852776
240,240,6.491756524802353,0.0,1,N/A,19.51922397952867
241,241,7.933186394371919,0.0,1,N/A,17.659152147627278
242,242,2.8170746768882395,9.660836546611106,1,1,15.137157121757793
243,243,7.749448629689838,1.7701237407650117,1,1,17.082510386372082
244,244,1.460993929869614,2.9904864727511815,1,1,6.387749737712635
245,245,9.127662034500695,7.616585445921903,1,1,23.533551409861467
246,246,7.081208306243002,4.508161903613972,1,1,14.599172460491218
247,247,5.069085202189829,4.00430644206433,1,1,10.893280659506795
248,248,3.432551863168034,7.797210105214489,1,1,17.050409363165357
249,249,0.9528538498038241,7.88953633152826,1,1,17.616446672597483
250,250,4.279718285824163,9.831567959590844,1,1,19.648805476264663
251,251,3.5763315766324846,8.925881824042424,1,1,19.38225188030375
252,252,0.7228504803371705,9.633120993248461,1,1,11.093710053745665
253,253,7.133601028773646,9.086323667684246,1,1,20.179734048814016
254,254,0.6077265878477622,0.523073394134661,1,1,23.980549661517454
255,255,1.8982992684572475,5.2911953716662286,1,1,7.191909984565104
256,256,9.83160405778285,7.747323990310823,1,1,21.95040195766002
257,257,9.68098645629468,0.0,1,N/A,19.533164314627875
258,258,6.288523495758916,5.484070716213796,1,1,23.490227395902124
259,259,7.459479678752519,5.4655919661034975,1,1,21.75600006078455
260,260,8.12826177121232,7.091762073280499,1,1,20.867711433967735
261,261,2.0141356118563403,1.584585145142977,1,1,17.261105529731825
262,262,8.653541965518928,5.801452141641575,1,1,20.916999379726292
263,263,8.51241778232238,2.452561991021117,1,1,17.264036524891985
264,264,2.3585330691961346,0.0,1,N/A,10.816728970120343
265,265,1.6670589208293496,0.0,1,N/A,12.394222964489085
266,266,4.6543228659344535,0.0,1,N/A,9.978551952780508
267,267,8.065237612188765,9.32652325712792,1,1,18.72606888500444
268,268,5.102277867942737,9.922737096721157,1,1,19.030857215953787
269,269,3.157310875011939,0.0,1,N/A,23.570581016370685
270,270,5.30190668092719,1.4676119577593016,1,1,13.243121547262673
271,271,7.155505762973956,0.6494429988760964,1,1,20.815595562071998
272,272,4.672540953318386,6.795443416842447,1,1,11.970850788472765
273,273,6.157303151370397,8.971135992188625,1,1,18.058427554750022
274,274,5.097710274361581,0.0,1,N/A,14.627800961607454
275,275,4.466923673785326,5.0444486253022625,1,1,14.419805692660017
276,276,1.4047561860303825,5.362325080926881,1,1,17.165748605296386
277,277,0.4963578140647762,0.6573765959830669,1,1,22.069705906231995
278,278,2.0319447088884313,1.7964945606111926,1,1,16.150009263034853
279,279,8.604338601674055,0.6879237536090754,1,1,9.773402175762056
280,280,6.828004282984211,5.438450824503727,1,1,23.89375945468867
281,281,1.2222928948817324,3.5511041294513177,1,1,20.914184272632937
282,282,1.1924846365041275,7.545558679120391,1,1,23.061492450619557
283,283,3.449174536490344,1.2535159555060438,1,1,6.155632282203163
284,284,0.20783928030788879,0.0,1,N/A,11.202525632355588
285,285,1.5757648764267218,2.328683167013401,1,1,7.823919634246348
286,286,1.3447611698801487,9.553458951092297,1,1,20.662570037563036
287,287,5.8032505421191685,7.2482836164898155,1,1,17.72655189075036
288,288,0.4541704347305875,3.0676580360157155,1,1,16.613760264907054
289,289,4.2283113787281446,3.921573788463694,1,1,20.00969261323277
290,290,7.310423168469066,7.605976462139705,1,1,20.854295486998502
291,291,5.600546391539543,8.650736865247715,1,1,15.970849984425048
292,292,8.336984678420642,0.0,1,N/A,18.918670350367645
293,293,6.1982809136420505,8.953273421767902,1,1,16.16424437243294
294,294,1.5871859706329972,2.5379148161323695,1,1,13.53540079978217
295,295,8.30742597595225,7.897948826515831,1,1,19.94437340622025
296,296,9.821979480527222,0.24253829579718889,1,1,10.778060722232604
297,297,6.272895755534085,2.7710737218030035,1,1,12.359958564562676
298,298,8.360535837280985,0.0,1,N/A,18.83539630850132
299,299,8.736611163453961,0.0,1,N/A,14.218676947503015
300,300,1.6031442142622843,1.8987233892254118,1,1,19.074272761448967
301,301,8.012877483998253,9.597355470262963,1,1,23.222029543365878
302,302,7.693595103123741,2.191325435221673,1,1,23.173997277749503
303,303,6.962396060899413,3.1219814965256365,1,1,23.70454364737051
304,304,7.3414743185276565,0.0,1,N/A,11.08994421162782
305,305,6.495452000370942,3.5415082542396115,1,1,22.88717173842936
306,306,0.49207011923503075,9.218956428465205,1,1,11.598257683922954
307,307,0.9299369103936439,6.912787533234125,1,1,14.234634868935359
