,Job ID,Stage-1 Processing Time,Stage-2 Processing Time,Stage-1 Machines,Stage-2 Machines,Due Time
1,1,0.11156922038296324,0.0,1,N/A,14.99648455514474
2,2,2.780892827017729,0.0,1,N/A,18.572791797758896
3,3,2.035693907893684,8.799811341453534,1,1,13.922588049788114
4,4,8.247273371352591,6.57369331629929,1,1,17.766629515784793
5,5,3.3011889826738336,0.0,1,N/A,16.258090278199095
6,6,6.148072917356135,7.945791532760963,1,1,19.203455029086502
7,7,5.507963466108231,1.7512192816471606,1,1,19.638906770656785
8,8,0.8583686351394981,5.939342539730069,1,1,14.810697234411462
9,9,1.4103402658986153,0.0,1,N/A,23.641121866166795
10,10,4.6329817603252845,1.8722520666279063,1,1,18.884354602237323
11,11,9.27059604631045,4.662496868257459,1,1,20.247950083584893
12,12,6.372720889156942,3.7972727126465577,1,1,21.011317502950043
13,13,2.4593492040636877,7.621060566411337,1,1,22.217164412681417
14,14,9.88796660083424,0.8987870275405918,1,1,20.492560269841302
15,15,0.18129982025978708,2.687177807752197,1,1,6.574236215025614
16,16,8.263211758173384,0.0,1,N/A,23.970641928447286
17,17,1.8737245705928929,8.906298535263916,1,1,12.681206188239877
18,18,8.025432020570303,0.0,1,N/A,15.858367616254093
19,19,2.434884075434888,7.069289468275647,1,1,17.24538654105265
20,20,4.622654141788978,8.731439673456912,1,1,23.992449063702335
21,21,2.946695558801593,3.020264663457647,1,1,9.756098538495143
22,22,4.482348365614291,9.847780562659974,1,1,19.403813974574103
23,23,0.646106010235914,3.2328069816930425,1,1,18.69738815035717
24,24,9.408573586382088,4.227437179358708,1,1,18.406310386970777
25,25,0.8996714877045653,1.7752125433467725,1,1,6.268873253363278
26,26,9.524415221606464,5.367003980743281,1,1,22.11153473745385
27,27,2.706792981855639,2.6878496835265353,1,1,14.305296441722763
28,28,8.954196839940078,8.807421158345402,1,1,19.50574314707456
29,29,4.883383128843261,7.580270521706841,1,1,17.56364474411276
30,30,7.495556098252056,0.0,1,N/A,20.107169296359153
31,31,9.820857972538182,0.0,1,N/A,19.147345148701206
32,32,9.162472312246896,4.021098415723828,1,1,18.124886448001615
33,33,7.391543563611529,0.0,1,N/A,14.619872978043581
34,34,5.109729409876773,0.0,1,N/A,22.39997114201105
35,35,6.212392853073267,9.17407046703745,1,1,19.915784606459674
36,36,0.2812057538704271,0.7871582442523872,1,1,12.580263087171451
37,37,1.4346536490748218,0.0,1,N/A,18.92533226798256
38,38,0.16345575313223337,6.523421668843984,1,1,23.566879579575033
39,39,6.213737673789962,0.0,1,N/A,20.70793906296545
40,40,7.627959176738852,3.8593890944844333,1,1,15.110882890618354
41,41,5.080978248618873,2.7322070067498485,1,1,10.12452500591583
42,42,9.564483140628289,5.164194393862659,1,1,20.901652713377967
43,43,8.363049569661449,9.278613309216857,1,1,21.02186034411917
44,44,4.297663136175035,0.0,1,N/A,7.276029043698232
45,45,5.19177301147759,9.414286963895723,1,1,20.625681535288596
46,46,3.2190701971166904,0.0,1,N/A,23.453237630511026
47,47,0.7341806815339658,5.464953381082661,1,1,7.808009309596208
48,48,0.1994832259933088,3.2451767129933042,1,1,19.613366595041885
49,49,1.597516242465049,3.223057666870943,1,1,17.36430471528082
50,50,2.337886022947168,4.033139175491623,1,1,22.93526596679036
51,51,8.769774836545924,3.553426150610383,1,1,23.580200240369823
52,52,1.2315006345757917,0.0,1,N/A,16.799905155608474
53,53,2.873607825473882,9.551954712363631,1,1,23.495423051128334
54,54,8.407573551349222,0.9816988140920335,1,1,23.45020033090977
55,55,1.325044864195818,3.092515889741355,1,1,21.92366969094094
56,56,1.065712013112332,6.026002077965974,1,1,20.513791873863322
57,57,6.2850514996912485,2.4221400168681964,1,1,19.74927162818265
58,58,5.961572534717034,0.0,1,N/A,17.454735849823972
59,59,3.6643004605610296,2.163668168052922,1,1,16.54564456602953
60,60,7.6378543784112125,8.53498634824864,1,1,20.918657094901434
61,61,3.75516090289717,2.5681024141389175,1,1,10.191884828377136
62,62,6.595509393824734,8.506129282444508,1,1,23.148082920329202
63,63,4.281287564716651,0.0,1,N/A,19.586186208225456
64,64,4.853786429747564,0.0,1,N/A,23.99943277141712
65,65,0.11999647824531667,6.999873904001078,1,1,8.453314759562147
66,66,4.931582644401851,4.136521450998445,1,1,18.843642789502773
67,67,4.631619699266816,8.571374590807277,1,1,16.381671372250203
68,68,7.137543582467975,0.0,1,N/A,19.07427773017576
69,69,8.005994315984658,8.312713939770127,1,1,21.77770785333332
70,70,5.51458421697077,3.204153798850873,1,1,10.884491644225237
71,71,4.866657356284088,0.43648365156871316,1,1,19.155310256011404
72,72,2.3124887241356626,8.072666558344693,1,1,11.495827866169167
73,73,7.588891186348957,6.755171334290417,1,1,22.261125863326743
74,74,7.583488036154749,7.299302700813682,1,1,18.312654383624388
75,75,0.358772717714273,8.173943872675363,1,1,15.026430810407692
76,76,1.5285389151314732,6.975647455717167,1,1,15.2988533760774
77,77,7.327699254272205,0.03050754332891148,1,1,12.774745328110585
78,78,1.368347539393655,1.9109344216267643,1,1,5.137680342166856
79,79,3.7609477795034807,6.286669041114231,1,1,12.230806254230487
80,80,3.0237281884846734,2.8138506571070074,1,1,7.895210577525313
81,81,9.675274554984025,5.296606708497398,1,1,22.20219354422089
82,82,4.597864390713458,6.423144066014768,1,1,11.749134512284831
83,83,3.1553820177667626,0.0,1,N/A,23.935485978975212
84,84,3.154239261665426,0.0,1,N/A,23.57338563963478
85,85,0.16697853633938275,0.0,1,N/A,22.504992467138724
86,86,6.084199737387771,0.0,1,N/A,12.391877931660852
87,87,9.402695257142913,0.0,1,N/A,22.133566746866645
88,88,8.230613574577875,3.274892953189225,1,1,19.046073056276448
89,89,0.8807885126181525,0.0,1,N/A,17.621127598500784
90,90,4.4870409653922465,2.5899488200723066,1,1,22.122045984294196
91,91,4.105209188172431,5.413219245762425,1,1,15.45445050118531
92,92,9.869761293047583,2.629334237657839,1,1,21.675043075270708
93,93,5.670811904521469,0.1415682962669884,1,1,18.740409816377646
94,94,0.3682526287392651,5.797522578365331,1,1,19.92171200113518
95,95,5.474360767130559,0.0,1,N/A,16.449696955939732
96,96,3.9918845297073924,0.5011510668818675,1,1,10.920873027976334
97,97,1.9536762764751092,5.079218380570224,1,1,7.25300517652155
98,98,4.203948443711798,4.468122876407202,1,1,16.780613194142614
99,99,1.961516303966201,8.89717649417523,1,1,20.727679011045595
100,100,2.7041117027875416,4.57806815288873,1,1,8.762310565110987
101,101,5.279837310983969,2.3358402347247775,1,1,21.55646707158234
102,102,9.311772067024561,7.2934180042650185,1,1,23.24159440289356
103,103,7.723115298905617,4.699644181547708,1,1,12.824457881910998
104,104,0.4904620871349885,3.7598728588537176,1,1,7.944700325883934
105,105,5.577502057965798,0.0,1,N/A,8.446555459384058
106,106,7.633870265462988,4.55334918192218,1,1,18.7640954725943
107,107,9.4292295262472,0.43122521654403556,1,1,11.149064939685596
108,108,0.17800676028957296,9.269598946223518,1,1,18.0532153645165
109,109,7.4940586820492285,0.0,1,N/A,21.825871079235668
110,110,3.7067990772332235,0.0,1,N/A,18.62130851492332
111,111,7.069805694103425,4.288595199047513,1,1,20.617008482620403
112,112,3.8816883418788892,6.305752404924339,1,1,19.976558528964908
113,113,9.395135847697498,0.0,1,N/A,14.857890182479782
114,114,0.27739849358942914,5.264169021778368,1,1,23.707894622554754
115,115,0.632126236666235,9.186622089866537,1,1,10.515347903881242
116,116,6.574023841048015,9.17591009492401,1,1,19.090261215270814
117,117,7.6670054239653505,0.0,1,N/A,16.711044190281847
118,118,4.353315056660461,9.932321640503204,1,1,22.028359169631003
119,119,0.6464660781467402,8.925365815335232,1,1,15.50485631360678
120,120,2.240247111061003,5.237564388447992,1,1,18.939886513279916
121,121,1.044690165631933,1.5477704982633333,1,1,18.152821221232642
122,122,9.941273563115091,1.298763751184644,1,1,11.618685761522975
123,123,6.696287813832597,4.681942133987691,1,1,22.621887510918043
124,124,5.1683409007553,8.599814080394838,1,1,13.78666940201041
125,125,8.007393741907567,9.642912319075219,1,1,17.92920242444673
126,126,5.207844298329574,9.912503885974914,1,1,22.677895677927744
127,127,1.9181230496106916,4.739382523469539,1,1,13.867317522948694
128,128,4.569999205328018,9.043954922264167,1,1,17.23755830182931
129,129,1.929685582910271,9.108396548527974,1,1,18.74045605266112
130,130,9.265296119028253,4.817329853405873,1,1,23.95167634521075
131,131,4.525566040589609,9.338282802461256,1,1,19.163223865828826
132,132,3.0085954298629183,0.7333146201903717,1,1,17.449278629627393
133,133,3.523556481465757,7.184670306077167,1,1,16.347080298996914
134,134,8.664547750196332,0.0,1,N/A,21.06163161717234
135,135,7.639308842831668,8.632056358002187,1,1,18.274848382271102
136,136,8.833128120683467,0.0,1,N/A,16.922472798251682
137,137,6.090505548716582,8.45493573240759,1,1,22.551783405767644
138,138,8.185154115885343,9.374824396406897,1,1,18.043278496429934
139,139,9.221341289715983,6.5383851294489315,1,1,22.936415195353913
140,140,7.44197560435164,9.44334340005989,1,1,21.20829402581907
141,141,6.598913649322093,9.458542157792847,1,1,20.04052738864415
142,142,1.5963783091057293,0.0,1,N/A,16.649046538677588
143,143,1.577380201397901,1.2172436594516756,1,1,10.475417147189807
144,144,8.36583516729596,5.287395802388881,1,1,13.948085446303471
145,145,8.975379239445527,9.215774848638308,1,1,21.072298726404846
146,146,9.675387289826421,3.3343211955290277,1,1,22.954238188880936
147,147,7.921189558836776,4.432847364221906,1,1,17.544397153415343
148,148,0.7299848991605673,5.678167971359189,1,1,20.88028794056987
149,149,6.5606635193507215,6.6793401764867255,1,1,19.265932480375923
150,150,3.4616961295448934,7.620102715131657,1,1,20.904616857639482
151,151,9.89564501285347,3.3198889231582154,1,1,19.9652649085148
152,152,2.79463046587375,0.12275105657868823,1,1,13.25030236094091
153,153,5.681404106367857,7.242598297228562,1,1,23.22463052898626
154,154,2.62937992815948,1.9492405607841368,1,1,10.745523389388673
155,155,7.222968061715011,3.417205938665705,1,1,10.676392555812154
156,156,8.343501763827973,5.801815003259958,1,1,19.647698835629097
157,157,3.3330955800635422,0.0,1,N/A,18.43400256224195
158,158,4.093555106064066,9.875097566749425,1,1,20.62994655430857
159,159,6.968824104038573,0.0,1,N/A,17.765290410050035
160,160,9.193235117258261,4.584226984342222,1,1,20.293619078411147
161,161,2.201700634742243,0.0,1,N/A,10.4344161440147
162,162,2.717075727063758,0.0,1,N/A,12.348781729154592
163,163,2.4175435372744216,5.878316401207762,1,1,23.91998764241079
164,164,5.236084165671835,7.352253579172264,1,1,19.027379489882538
165,165,2.9768053518229176,0.0,1,N/A,21.18121907269876
166,166,2.022797680157391,3.4128546819487973,1,1,9.44075373548327
167,167,2.411821511037018,6.411932119832022,1,1,12.364397703539531
168,168,8.145617623407494,0.4164124277816583,1,1,18.35517437354542
169,169,8.854003572950763,3.3230241407061554,1,1,20.73851770432145
170,170,5.648971645912995,9.700538164802083,1,1,19.115617640624993
171,171,8.507856810362636,7.241985099504423,1,1,22.487799243106355
172,172,5.2603653811346955,7.35774800327858,1,1,13.881332985486509
173,173,5.390271797686808,1.391426268567082,1,1,9.630110867991196
174,174,5.675020463139124,6.4027369122539834,1,1,22.12802003561645
175,175,1.4937390909989123,2.1812373760718717,1,1,19.63925787072837
176,176,1.4066164616920995,0.9900031098238904,1,1,14.791190748378764
177,177,3.138404437476421,1.9495410622801335,1,1,5.922693662430622
178,178,4.222832465563334,8.180046755076997,1,1,15.836684228355853
179,179,8.82866908614405,1.1280925757856808,1,1,12.254865116749828
180,180,7.5127621435131,6.7600913494813515,1,1,14.966114982516327
181,181,9.429634167435182,0.0,1,N/A,17.63895389409498
182,182,8.187483650470801,0.0,1,N/A,17.4626725026287
183,183,9.759889050153294,3.1044402563382345,1,1,22.204881723180037
184,184,2.950238760342838,0.0,1,N/A,13.453461306484954
185,185,8.329791688704093,0.5026897348643755,1,1,12.864347165177541
186,186,8.930985596968352,6.7687868834693345,1,1,22.398376619234746
187,187,7.8253823045406765,1.5444292400319926,1,1,19.97369817944773
188,188,6.076781453302477,9.735676248723246,1,1,23.192017000865846
189,189,2.159694730440563,0.0,1,N/A,23.90703397740159
190,190,0.8939777325112541,6.004642226858064,1,1,15.267553760773346
191,191,3.9833364605269783,0.0,1,N/A,18.527368805065663
192,192,9.337618113834642,4.6176372938767525,1,1,15.344493937774555
193,193,0.027396737860186926,2.7136355063611783,1,1,10.37878923843131
194,194,4.229545093165703,8.68060216297212,1,1,15.550080748902829
195,195,6.465996538307095,1.7339614477754817,1,1,19.32818461902487
196,196,2.6575344312488447,4.079394902015538,1,1,14.635234917462036
197,197,9.89294392993815,0.0,1,N/A,21.301669476825445
198,198,4.385985386270152,7.411853751920328,1,1,12.304720234260897
199,199,6.706741466096449,9.098433280993188,1,1,23.109472948830884
200,200,7.229032794875195,7.815153709941631,1,1,23.177819284697136
201,201,2.093287863079649,9.387377882797185,1,1,12.054840469509246
202,202,2.3139012460866493,2.9262312274039806,1,1,7.108291282061366
203,203,9.676582725006412,3.3600919192604173,1,1,20.242632015634143
204,204,2.210156008500962,4.057502337899334,1,1,8.114965411992307
205,205,6.233315362442213,9.326017163268814,1,1,19.17923211033642
206,206,6.31953466838446,6.028361376633318,1,1,19.390103284514527
207,207,1.444839912508955,2.1522467838074197,1,1,12.563292681430896
208,208,0.15308486846846825,0.22231338116843302,1,1,8.54661652336185
209,209,5.488107212967861,9.43347780398039,1,1,21.511804507131238
210,210,9.270246904142168,1.1409631432451406,1,1,17.57931688023544
211,211,4.808563135484574,0.0,1,N/A,20.637172032461347
212,212,4.967646059128873,2.853976994504995,1,1,10.794831489721403
213,213,8.31136143475255,9.03031555547898,1,1,20.10619455486731
214,214,8.656045248527471,6.122698886972576,1,1,18.20178104510352
215,215,0.8751489072678198,5.127457089406211,1,1,16.43487142206004
216,216,5.705686713394176,0.0,1,N/A,15.604557692379414
217,217,6.822770170958372,3.645881903012934,1,1,14.959424522382998
218,218,1.2846257698800478,2.146338759858658,1,1,17.73935054579138
219,219,6.132630376971254,2.015282488820013,1,1,23.032940669766592
220,220,5.306363188000855,7.401442084144925,1,1,23.024493360936276
221,221,4.330241564551185,7.896584123608631,1,1,21.254754611311572
222,222,0.14161859542892952,7.923427313417859,1,1,17.7326676573278
223,223,3.4080724219681313,8.4303291691739,1,1,16.81902479380866
224,224,9.54686916669074,9.8723778064195,1,1,21.84795270436939
225,225,2.240771416397708,1.4510971061920075,1,1,6.122881769086478
226,226,5.6616870105272845,5.9335950588910364,1,1,21.305735925391986
227,227,1.3487984748483206,0.0,1,N/A,6.969214394683556
228,228,7.768081689627841,0.0,1,N/A,23.575492864638974
229,229,8.231181757635813,1.3095668193985,1,1,19.936063075315353
230,230,2.983192752624312,2.5538944265902916,1,1,9.334794290574905
231,231,0.3522014646239757,6.429737500046702,1,1,18.508632521353242
232,232,6.477096491223554,3.1048771511819764,1,1,19.83103626859872
233,233,6.528858617183488,0.0,1,N/A,15.052562602708539
234,234,0.35335838630546235,8.88055060926119,1,1,9.7251896639928
235,235,2.822156122779372,9.907743640239124,1,1,17.193609476154776
236,236,0.9158619671327839,5.182396716955243,1,1,23.865472130298933
237,237,9.029848626188794,8.510786303485965,1,1,18.040950847866398
238,238,1.8522480606284397,6.901284181238079,1,1,15.248283561689966
239,239,7.08370190799617,7.135926273851979,1,1,22.87392365749929
240,240,9.892653272815355,7.91723582681087,1,1,20.834464091374414
241,241,0.8737989077045594,4.9635784547041295,1,1,6.145669069151165
242,242,9.168384638962749,7.85076464902514,1,1,23.812529866808944
243,243,0.9168183275631514,1.58755852593782,1,1,18.958039346277396
244,244,4.006577697878746,0.0,1,N/A,6.017438430146032
245,245,6.7902219596037705,7.8774206516479435,1,1,17.648292930139284
246,246,5.583121308312733,0.0,1,N/A,11.42786285401196
247,247,7.535891894551843,0.0,1,N/A,16.516984003720562
248,248,5.175857910552257,8.370690827583813,1,1,23.600033448142668
249,249,8.61651616467578,8.65493936999023,1,1,20.184493845892806
250,250,8.977422925926602,8.156441489089595,1,1,22.073235098452756
251,251,9.892141328824462,0.0,1,N/A,21.78336982544635
252,252,4.598020783724182,0.8236665460939463,1,1,17.255972336969265
253,253,2.819281944401032,6.552165984715196,1,1,23.834116889595656
254,254,9.317996109988291,8.833304122425114,1,1,20.968887549942806
255,255,5.760100769245162,0.7228188760099019,1,1,19.026350777323074
256,256,3.979024246965283,1.252909308868938,1,1,5.580926175065598
257,257,9.271437512452692,2.9397395684727035,1,1,17.169755405135497
258,258,7.483373462476597,0.0,1,N/A,22.20397725697092
259,259,3.1590329979393914,1.0094582624850212,1,1,8.213955987038169
260,260,4.30170760345253,5.40934369876549,1,1,20.73968421537856
261,261,9.568616312811693,0.4744132357009456,1,1,13.739447561124368
262,262,0.36735648973992063,0.32312529593366945,1,1,20.93467517453521
263,263,9.407840853177515,9.803012077334529,1,1,23.57821236486654
264,264,1.5894487019858683,0.0,1,N/A,23.816857000984818
265,265,8.570671880472661,0.6096539717474714,1,1,23.679000358942094
266,266,9.61027220378511,4.031988013392579,1,1,14.948885162905526
267,267,7.295870484939639,0.0,1,N/A,12.050667887863716
268,268,8.192795558216213,1.9461299148998346,1,1,13.439346909408382
269,269,0.21021881484430405,6.429623160350529,1,1,17.035974010175636
270,270,1.2012770117592153,1.6807615658889752,1,1,18.886391138544127
271,271,4.667525011317995,5.873943495927191,1,1,14.250447205282985
272,272,1.648167075061624,4.748610707980493,1,1,9.535734911087424
273,273,1.9075186186095339,6.665367273239385,1,1,20.924243333928693
274,274,1.0172369507822732,1.318408851228856,1,1,17.519136312273517
275,275,1.486307165738272,6.150948728417497,1,1,11.153978348002667
276,276,9.667729115958796,1.7156605635573974,1,1,22.930592367538548
277,277,8.124786548602959,3.1031804984359157,1,1,14.72313425871276
278,278,6.298413543202294,8.25854595606041,1,1,16.0523972978136
279,279,9.515380050095072,6.43993441582484,1,1,16.22237630997315
280,280,1.5815495567208626,2.086031636624064,1,1,4.657897988751386
281,281,6.304992002880441,5.227429328319083,1,1,16.666738123696096
282,282,7.750385719010353,5.373996133345845,1,1,14.207474263439236
283,283,8.805278819913138,0.0,1,N/A,23.533920136655667
284,284,9.75209848251082,0.0,1,N/A,14.609616168135112
285,285,5.642365504473288,1.0416311927592325,1,1,7.293916670041616
286,286,5.283536219052985,5.980751634300606,1,1,16.875643777825676
287,287,2.8749522721454945,2.69044277556611,1,1,10.659877292886339
288,288,1.0981702584971886,0.0,1,N/A,19.00583202561223
289,289,6.861292935937856,7.481872786964159,1,1,22.279387136667
290,290,1.6232233357457249,0.0,1,N/A,19.676418571077964
291,291,0.35685797707430855,8.995269152667657,1,1,19.918588699087163
292,292,1.104698996170188,1.4897494372813491,1,1,19.70671700741811
293,293,1.1079175456121948,0.0,1,N/A,10.241485525370926
294,294,9.790451996159673,4.2427131739429935,1,1,22.57753082199245
295,295,0.699509089899556,0.0,1,N/A,12.269305269761464
296,296,4.436620365709972,2.917619357666006,1,1,17.98094869495813
297,297,3.4775656908402794,4.59941226252063,1,1,17.669759598806547
298,298,0.4434387864080569,9.073178547277058,1,1,23.286077735235168
299,299,0.886082357040211,5.104003195386314,1,1,11.602398191168797
300,300,9.942373477842507,1.1097572766615305,1,1,17.74900906147804
301,301,9.18024843815113,3.0166401594838197,1,1,22.691011475428304
302,302,1.3372377429948679,7.217030580271057,1,1,11.741275664926503
303,303,2.01462321649291,2.6491091831568,1,1,9.183193313389573
304,304,4.0816453032553515,4.597103498656541,1,1,15.478994461654946
305,305,4.196866971145175,2.6073497421538114,1,1,15.252242746226406
306,306,2.97944854289328,6.606862522599355,1,1,22.020846928394715
307,307,1.978554435666594,1.0134941193819813,1,1,9.18873678089234
308,308,2.7616277616018103,8.499348190617432,1,1,12.363369311445913
309,309,4.903611312883336,0.08013068059434914,1,1,8.414153237712037
310,310,6.982927506388652,0.0,1,N/A,10.695960108567537
311,311,3.6899402272101534,4.058497245462621,1,1,22.780564822118166
