,Job ID,Stage-1 Processing Time,Stage-2 Processing Time,Stage-1 Machines,Stage-2 Machines,Due Time
1,1,1.328252824407481,5.33138057036488,1,1,17.630770075684065
2,2,1.482317891922983,3.846221161042831,1,1,10.617322882719549
3,3,6.568897183464438,5.395141124469537,1,1,13.860872193970549
4,4,4.307275647480173,5.588301104791947,1,1,14.005241137462276
5,5,4.097455086483743,2.1978649511643775,1,1,18.41484064817116
6,6,6.498000303046218,5.934044685974655,1,1,15.094784044405497
7,7,3.319965370691653,8.155835181503157,1,1,21.6874826233964
8,8,2.451453281307322,0.32201710110816406,1,1,7.056169621154351
9,9,8.350469353825176,4.901692367003311,1,1,21.84763306471735
10,10,0.7579506513099066,6.087211908221256,1,1,12.674289454970133
11,11,6.573260458042055,0.5081177735076903,1,1,21.731148574427856
12,12,5.190055808139843,3.4135037258739906,1,1,16.6443413154108
13,13,2.1326784666194856,0.0,1,N/A,17.5268355695371
14,14,3.0232734448417355,0.0,1,N/A,12.906228403032115
15,15,1.3754674308633708,9.8502639072072,1,1,17.3385293922688
16,16,2.4475624621033565,6.300723466105969,1,1,21.786005400185118
17,17,8.18544134573166,5.097567718731115,1,1,18.65650538219184
18,18,2.869324366217164,4.933931259131431,1,1,17.831223811299996
19,19,2.828806729949511,4.094242658456825,1,1,20.462230116551545
20,20,9.520898026462927,9.351391003281377,1,1,20.984079704571965
21,21,8.56576011581587,0.0,1,N/A,21.61632382012815
22,22,2.901954342824995,0.0,1,N/A,22.89384463571541
23,23,4.8038142175246215,5.203743953608083,1,1,13.83619753361485
24,24,2.1359481209671816,7.433091619031169,1,1,10.087692677362122
25,25,9.12313076181255,1.7769626215990386,1,1,18.553251429023685
26,26,5.994139264992745,8.63279604647171,1,1,20.433458369826553
27,27,6.516578589445588,7.620753803723197,1,1,19.450103361637275
28,28,1.9790109839552372,0.2728666147282144,1,1,17.026619986505388
29,29,6.3994449180474,3.7366617416317482,1,1,20.788360465900777
30,30,9.620390947917919,3.8334600840872146,1,1,15.449489970057202
31,31,4.6832197462307565,7.640367758426825,1,1,21.384054577754995
32,32,2.231574076356976,5.4190850866503935,1,1,18.000207749211427
33,33,1.9264939164481298,3.1434285807963827,1,1,19.741265450098254
34,34,9.315121297364467,0.0,1,N/A,20.319705107630604
35,35,6.033167799997523,5.669434649662584,1,1,21.69091849564007
36,36,2.3709225222494856,0.0,1,N/A,5.344250660128392
37,37,7.741963474508498,0.0,1,N/A,21.753683107666482
38,38,2.867281149531485,6.976898089449976,1,1,17.758299134050798
39,39,6.330600540471581,3.737634886098272,1,1,22.899207860672313
40,40,0.8470560896969503,7.559005292553604,1,1,16.082214247731137
41,41,0.06636134786454528,3.7003900090294106,1,1,5.484668234810151
42,42,7.7772521141030895,5.21233096059798,1,1,16.931143272573618
43,43,0.27740226130429924,0.0,1,N/A,23.60083712117347
44,44,6.975122269908062,4.068193239576605,1,1,15.019924989053541
45,45,7.312047279909088,0.0,1,N/A,16.965987232289866
46,46,0.8410772886354612,6.387702224209431,1,1,18.96648070084398
47,47,3.4587495606556318,5.349792310361496,1,1,10.992225204322619
48,48,1.244010864600863,9.334020732978784,1,1,22.59213668160527
49,49,7.894870873521712,0.1809780853467835,1,1,11.135994540378924
50,50,3.2712780095754157,4.309232323449665,1,1,16.823390010726087
51,51,9.054194984509675,9.402489089293905,1,1,23.814823933681012
52,52,8.328270750143718,4.590095291691999,1,1,14.190094737400482
53,53,7.119749732419253,0.0,1,N/A,19.599516088007874
54,54,1.4516023729440297,8.019594085825464,1,1,19.317705833234413
55,55,3.149211553988034,2.80064469012272,1,1,6.722981876370864
56,56,3.1430646622924883,9.708081074702111,1,1,13.176102520178247
57,57,7.6187251404220255,9.29481337058937,1,1,23.201787608228777
58,58,2.8810431524422597,1.0310330838840465,1,1,14.29161257415462
59,59,1.1653332068682665,1.1162051995262667,1,1,5.482716274781147
60,60,4.526075815201858,0.0,1,N/A,16.993605295608965
61,61,8.308113806048853,7.8437490979606235,1,1,20.625738198981566
62,62,2.2293653750267306,9.893365498441742,1,1,14.951344456624014
63,63,7.3655194411405045,5.963488022548691,1,1,17.67745875203635
64,64,2.425925769442369,0.0,1,N/A,10.856374098477833
65,65,1.7225289113581777,4.4696514212941025,1,1,17.818532521755877
66,66,6.564551589796369,5.532450861297653,1,1,15.881444694585737
67,67,6.772296765232637,2.5865400773358385,1,1,20.007666320502587
68,68,7.902915662808645,4.100961319610451,1,1,21.023429484948394
69,69,4.0778223710718375,5.046984204079987,1,1,20.74047581876804
70,70,2.1937336306013266,8.532446974646184,1,1,15.475451407882613
71,71,5.563547970082345,7.027050334980704,1,1,20.43692341366813
72,72,6.772173935081413,7.512885095274994,1,1,15.362397999908662
73,73,0.34424824165322665,7.209870920745568,1,1,11.896804580058246
74,74,4.436668102405984,1.5141590362230462,1,1,18.13059851970697
75,75,2.7117988881667543,8.54195870578146,1,1,18.955077044680518
76,76,9.68606331231692,5.845081524147126,1,1,22.79315453759723
77,77,7.937076867978829,5.871843777552904,1,1,16.643885333564526
78,78,7.707486681829193,6.444045533942301,1,1,23.585728251049197
79,79,1.2772349627131108,8.04641520624289,1,1,10.00114519076227
80,80,5.894092558135946,2.440717183862793,1,1,13.495869888797344
81,81,5.437166385123565,4.544618124962484,1,1,15.526507622160029
82,82,6.84539389459601,8.83251446265421,1,1,17.65173326804692
83,83,4.455562724097448,0.02158667571706463,1,1,15.572184687260028
84,84,9.410930292646016,0.5673097284396367,1,1,22.927735346706697
85,85,4.16605041542364,8.232555520515549,1,1,19.519273820189532
86,86,6.819378424642121,5.825210079026113,1,1,17.35387777360005
87,87,5.115074666005704,2.056775031597274,1,1,22.683887074034423
88,88,3.3127347426046247,1.6717398679218853,1,1,18.01394442367017
89,89,1.6667493979319892,1.6094850204670064,1,1,12.26169877840417
90,90,1.574062267708245,0.0,1,N/A,19.17246801521168
91,91,2.865491073587998,1.0339016558440606,1,1,20.036123834287235
92,92,9.756180912409969,9.076490677931444,1,1,23.145468081118203
93,93,1.912637629030065,0.0,1,N/A,15.18465369677946
94,94,4.985249341596968,5.402141335642696,1,1,20.56053887267841
95,95,0.6954229423380909,7.073009803945479,1,1,8.789127360199025
96,96,8.769558078605018,2.446281006183768,1,1,11.303192342998528
97,97,9.245353565998846,3.4561266857302506,1,1,23.557684656566494
98,98,3.2308617178886845,7.421539186711263,1,1,17.245505836868016
99,99,8.360931731470577,1.6689306756487765,1,1,11.268044581261439
100,100,9.252252376764439,6.265581536476218,1,1,15.898059927011843
101,101,3.4187056845108463,1.8173277948710098,1,1,22.521109722705344
102,102,5.0836493327549315,6.710065609663247,1,1,11.941121372275175
103,103,2.246449191922161,7.525733320487285,1,1,11.093626505326675
104,104,1.2254649805767748,2.2195984925605416,1,1,5.079774518610659
105,105,8.364301016549954,8.73437328209538,1,1,19.954674276311554
106,106,8.698249164388798,3.4706764436636304,1,1,17.686057054115672
107,107,8.906888718640108,2.0384289584121316,1,1,20.744134701533998
108,108,7.3854725123662215,2.784226942374656,1,1,17.463467295715667
109,109,2.8414381099464494,6.722546058643379,1,1,16.8835435581632
110,110,9.833025453367464,0.0,1,N/A,15.990953474341529
111,111,3.88466463189744,0.0,1,N/A,10.905738356748024
112,112,4.443453627727844,6.925526494066155,1,1,23.22509016892525
113,113,8.231362329552535,3.5537125613366003,1,1,22.172485873475548
114,114,3.319748078015694,3.078936389943663,1,1,10.986274877449413
115,115,2.970323509965631,6.231118366728934,1,1,22.172431584864174
116,116,7.28104253904705,0.0,1,N/A,9.1878676759896
117,117,7.5542768968237155,0.9490041567859797,1,1,22.564478475405984
118,118,0.4456016610815827,0.9664828797707647,1,1,8.088083280864101
119,119,5.8049397268934975,0.0,1,N/A,14.799952725199368
120,120,9.864790959372996,4.130637718490392,1,1,15.473523160929927
121,121,9.21396711575954,4.981686303951816,1,1,17.849827513015963
122,122,0.5742543871410444,5.75635297575518,1,1,16.96020883454415
123,123,1.4225519291560895,4.8035035962179755,1,1,22.331451604454404
124,124,6.427012395348152,1.568481316379401,1,1,21.539789878453654
125,125,2.776631468691937,7.018440911447614,1,1,15.323080777087178
126,126,9.969617145981115,2.006932804827594,1,1,12.708149142470743
127,127,3.132380980101044,4.351879838169306,1,1,20.191516292429426
128,128,1.4238302877301723,7.081724026222372,1,1,13.48053967672725
129,129,4.229117074895765,6.09152693673971,1,1,18.519351757631348
130,130,4.537117380090869,5.038480243609848,1,1,10.078484592700644
131,131,4.85031543215544,6.747199995376646,1,1,17.38116419311193
132,132,9.765187086512817,0.0,1,N/A,16.411483396204005
133,133,5.609699763957833,7.99246694423073,1,1,17.580211487590965
134,134,5.152460636103008,0.4276721041542708,1,1,16.943213965682116
135,135,4.707367881169394,1.2814270867433608,1,1,16.391747067082072
136,136,3.672459649576064,9.119880140121584,1,1,17.319354718535106
137,137,4.802127433017115,7.922495662519045,1,1,13.02892022023007
138,138,5.476110020050676,4.085660902501348,1,1,14.527329147091905
139,139,8.385324757013855,4.016833887706869,1,1,12.632620747986303
140,140,2.145781305869404,7.443450845622211,1,1,15.400771004329236
141,141,4.6674135139166335,5.998158143477813,1,1,11.714589311514573
142,142,0.8739698673453222,0.0,1,N/A,3.502523821873206
143,143,2.571459430409625,5.3071473230102,1,1,11.192683391743873
144,144,9.555000914920726,8.368685344853223,1,1,18.647555220534862
145,145,5.3469778310923175,4.770973861755871,1,1,20.09837328727584
146,146,0.05075050082766652,4.352602959620339,1,1,10.824302333539602
147,147,8.55445979529128,0.0,1,N/A,23.170823214752755
148,148,5.4613699039918915,3.1228548658436086,1,1,17.703154283617565
149,149,6.651581439530272,4.48596462299207,1,1,21.280534202548065
150,150,4.4384671413373935,4.111529221770766,1,1,15.613567220605006
151,151,3.2759287112522486,0.0,1,N/A,16.6030623414285
152,152,0.06776587728004713,7.660749124930386,1,1,9.552849980679836
153,153,0.07195626768204177,0.0,1,N/A,18.531526724954812
154,154,6.857578437673606,6.106852257969182,1,1,19.64248284454181
155,155,8.11722812609095,0.13209192079778553,1,1,17.222141420639854
156,156,8.103406033411005,0.0,1,N/A,16.886101181302855
157,157,9.523997629365203,1.7532457406106217,1,1,17.967702492124356
158,158,3.48542566932297,2.037394339880183,1,1,18.24998479579521
159,159,6.996452345869088,7.925577748352462,1,1,17.313978768259865
160,160,4.32099309755208,6.929404603437882,1,1,21.877984664611095
161,161,5.556285466892547,2.4043358154593397,1,1,12.507507449583013
162,162,6.922076864298959,4.9882082358218085,1,1,13.25886387312773
163,163,5.427619489956902,2.587658613606564,1,1,20.28654228570211
164,164,6.885791963840143,1.0168672941225665,1,1,12.912203437990277
165,165,1.6237754064144516,0.5641194654704362,1,1,12.190755302070432
166,166,5.580423211891031,3.1284514369711944,1,1,19.984901569012926
167,167,7.8538672130832605,4.400440605141396,1,1,13.30426883560223
168,168,1.7660669729156964,2.0555883770143435,1,1,7.696995156961757
169,169,5.971927875397412,4.98621457214891,1,1,13.517067596886106
170,170,4.931549253825058,7.586923936081124,1,1,12.774541973801078
171,171,4.8127003163237605,7.280262246139935,1,1,22.94279901673741
172,172,9.206029149081637,0.0,1,N/A,11.299643401177201
173,173,9.030218630592062,0.14265823900388663,1,1,15.442062032628417
174,174,9.075210180685893,0.0,1,N/A,23.0165495495344
175,175,6.996633120428225,7.8781598748167685,1,1,16.651654038287443
176,176,7.754643949086687,6.578491760570105,1,1,17.045650189518035
177,177,0.4525383327688437,2.8248378181257494,1,1,23.552999300411734
178,178,8.48761781946664,0.0,1,N/A,13.262647943731654
179,179,5.593862486137206,9.21710821720392,1,1,15.086062378214661
180,180,9.66929955793597,6.828603965393132,1,1,18.977500629984082
181,181,8.249620503125735,0.0,1,N/A,17.09151555996462
182,182,6.317672289712104,3.9060516411318713,1,1,13.645697322508038
183,183,5.771858373161471,5.11352384913568,1,1,22.148235595859113
184,184,1.564213969838666,0.0,1,N/A,10.506220918381587
185,185,4.85723660214903,6.656905498125935,1,1,20.559949146613285
186,186,9.958593424920629,0.0,1,N/A,21.739305935511066
187,187,8.212449368867711,0.0,1,N/A,16.11072905098694
188,188,7.89117759437656,0.4921713576111997,1,1,11.669630407739968
189,189,9.831803660993867,3.9095911937679606,1,1,15.232324996411917
190,190,5.558975954335505,1.0148259405194782,1,1,12.419917861488658
191,191,0.14191513187823412,9.313437195110815,1,1,14.170798411114056
192,192,3.3398672422933195,5.9411005168845925,1,1,11.100820139743263
193,193,2.9729915962253384,6.841601478721747,1,1,22.40725764082385
194,194,4.17082731000971,7.932941492337616,1,1,23.586699142477052
195,195,1.865788376894747,9.859781974404422,1,1,22.585361919771525
196,196,7.98434221413264,0.0,1,N/A,13.795609467509433
197,197,5.115896381750186,6.559306179218844,1,1,21.589216192650944
198,198,0.5104219940164711,3.7718381907823906,1,1,19.63783028029596
199,199,6.632327943423766,5.641088252817966,1,1,21.511761270844517
200,200,3.913368219101087,0.0,1,N/A,9.575840265114614
201,201,4.739770531366732,4.345352421478392,1,1,10.362856646167044
202,202,3.821322630584297,0.0,1,N/A,15.672985639946747
203,203,6.921856915993921,1.3294184151202615,1,1,9.158553264011374
204,204,8.55424886247524,4.015023525723684,1,1,23.000357676953126
205,205,2.0835014279724264,0.0,1,N/A,6.684679413701602
206,206,8.251449785351182,3.223530380588758,1,1,19.620265888083388
207,207,8.287633271830215,0.0,1,N/A,22.417635339703754
208,208,5.008281658605961,8.175179292956306,1,1,20.529496837301966
209,209,2.0157104259677805,2.9970191117530876,1,1,7.2355448031924965
210,210,2.427507007988925,0.0,1,N/A,13.093382561496908
211,211,1.1389184399488883,9.353169168507453,1,1,17.83866121853535
212,212,2.7886713355235493,1.7601624242083724,1,1,22.138907746330595
213,213,9.639215798863146,3.8178436487207534,1,1,16.035734127798484
214,214,7.279274550667144,3.9268706667400255,1,1,13.89314866417264
215,215,7.16341173791693,1.797769649670139,1,1,21.890175330536508
216,216,2.2419557745316854,5.967082531659478,1,1,15.162282312457648
217,217,2.1113694044127373,8.012685772131414,1,1,23.47731793530673
218,218,7.330407142210371,1.7676273253051256,1,1,10.650653984841835
219,219,6.648830082266737,0.7939491154059397,1,1,22.40343889956356
220,220,4.776432175477975,4.663329222082643,1,1,16.189148107279365
221,221,9.472299344199683,7.569066857700144,1,1,21.1627695849549
222,222,4.738393387598675,5.05956117018737,1,1,21.52917749012174
223,223,5.409856792194328,1.8438380721049252,1,1,15.037029945326339
224,224,0.5324791862782841,0.0,1,N/A,14.622021614504586
225,225,1.52551567484136,0.0,1,N/A,18.922387834445978
226,226,8.875613071160073,0.0,1,N/A,23.00803125690822
227,227,3.2429688448119243,4.07896015252864,1,1,23.45784579226375
228,228,1.2042009432777445,0.0,1,N/A,11.082833603154874
229,229,7.803341982524962,0.5231841379896596,1,1,10.581338708137814
230,230,6.989172870146049,1.0853752710045683,1,1,19.145615488778496
231,231,6.313700287899601,0.38974483839228746,1,1,18.20104226453494
232,232,9.064346182360163,6.814961850368457,1,1,20.219090728161902
233,233,1.1487014884781244,3.095178207879,1,1,20.778322680053513
234,234,6.432942031719381,6.808698702063727,1,1,20.320407310768804
235,235,9.959140187189737,8.83299892797384,1,1,18.854288107222303
236,236,0.3011557440088475,0.0,1,N/A,7.546434453003515
237,237,6.485137582628409,5.486777665151559,1,1,14.594600597853756
238,238,1.8426466889171755,6.580226354267552,1,1,8.540741498011233
239,239,1.8674953655945759,0.8101782292063131,1,1,2.914443777485116
240,240,8.059681441756778,6.387558658603973,1,1,15.304145903842578
241,241,3.7457911335387895,0.0,1,N/A,23.140891800095936
242,242,4.728196042482903,5.997968627145854,1,1,14.949763958241618
243,243,6.085153010451788,5.699765014249899,1,1,20.017825846431926
244,244,5.43588310176149,0.0,1,N/A,15.446251228382025
245,245,5.995762755813851,8.736474290200372,1,1,16.300277076613664
246,246,5.266733576134623,7.017891021610053,1,1,14.982536377499631
247,247,1.8275921210404722,3.369701907324909,1,1,17.538469854844294
248,248,4.097600191578295,1.6927126879808618,1,1,10.132087452899519
249,249,1.4727757360225324,0.8561806094175894,1,1,5.734280174356309
250,250,1.8309695770531154,1.108433399946196,1,1,19.50832440010317
251,251,3.0241828756592515,7.077695342866324,1,1,22.23748839662659
252,252,4.9807370329803575,0.0,1,N/A,22.75274900982182
253,253,4.250354517260011,8.821250788366006,1,1,23.89336209354626
254,254,5.056308353501606,3.061233120118847,1,1,9.157845595213521
255,255,0.6937069036516774,0.0,1,N/A,6.6255834911375695
256,256,0.654699071459921,2.7503238112258277,1,1,20.288127390253397
257,257,3.489153282124616,2.763377445438148,1,1,19.111011000081977
258,258,0.20999704146184905,0.0,1,N/A,11.618621582779724
259,259,0.8768097601925307,0.0,1,N/A,7.744606209907559
260,260,0.9098344918945178,0.0,1,N/A,19.786608524892216
261,261,6.374868290852351,8.2903103026183,1,1,17.618592288581887
262,262,1.9808849030366804,9.520936377942308,1,1,21.89366122672952
263,263,2.0083728089212602,6.048089132174703,1,1,22.75927898498064
264,264,3.919393628510066,6.397174566526004,1,1,17.102907355641047
265,265,9.317478022149094,2.853611727414951,1,1,18.27067190895027
266,266,8.97254462052356,6.8711008559860565,1,1,22.150959216911836
267,267,0.8025895801678251,0.0,1,N/A,12.072667119364588
268,268,3.8177649207662023,6.760590877904712,1,1,20.550285486239527
269,269,9.416619718265016,4.0653182504870315,1,1,21.08145757744122
270,270,9.848903396748735,2.633901938224641,1,1,15.315212914088805
271,271,6.316201076991521,7.499118666718772,1,1,18.584296608870975
272,272,7.463621848089294,1.5081664906128922,1,1,12.835342011726965
273,273,7.632132928665999,0.0,1,N/A,16.362828413217912
274,274,7.732885509577379,3.4845669759843014,1,1,20.709250094820383
275,275,2.2199410743414205,7.610955011130438,1,1,11.891281027519817
276,276,6.540687968897469,0.3840621682145495,1,1,17.29626395794932
277,277,4.207195074328055,2.568495801880626,1,1,18.495942925710466
278,278,2.0339557902468695,7.717823390630631,1,1,13.018401479479074
279,279,2.5822614846963567,4.527137284473324,1,1,13.884176865331845
280,280,5.814720721587895,8.118653684439192,1,1,17.165506056756392
281,281,5.701257542255327,6.53633003110942,1,1,23.872288710493653
282,282,3.9259457148816033,9.223285640612687,1,1,18.679484216299702
283,283,9.886476537070667,0.06566321382521223,1,1,16.01133801301838
284,284,1.1072088078867726,0.0,1,N/A,15.277228781619563
285,285,5.024458704390193,4.2367380315422345,1,1,22.337861595592937
286,286,2.507421098697259,3.469807873387274,1,1,20.317272518761484
287,287,5.182443938824378,3.6188624412756387,1,1,18.35596854758894
288,288,9.88617821738673,2.752008236624155,1,1,15.369157343241422
289,289,6.923810682686794,0.0,1,N/A,20.990127232148517
290,290,9.585968530071629,6.686219366275297,1,1,21.682779342179476
291,291,4.7461087510593005,1.7695487695606216,1,1,11.107085304642467
292,292,4.083986234933651,0.8699603901264708,1,1,14.49044165534493
293,293,2.4530210392820084,7.632269689226861,1,1,12.951853893455716
294,294,7.780878384053944,5.852261670025732,1,1,16.08465013574471
295,295,4.481184678974932,1.1186867180261961,1,1,7.515332490973027
296,296,9.87904583153348,6.551527498339237,1,1,17.11712322519084
297,297,4.378613868150722,5.1979048519889925,1,1,20.790174191588406
298,298,1.359628230326344,8.930426147723352,1,1,20.702653922200142
299,299,2.4640305971431378,8.294126182540783,1,1,18.135479701287178
300,300,9.45874017150052,1.5827339536440677,1,1,15.56055148029898
301,301,3.0568652127128795,0.7299820212155039,1,1,15.755811556296262
302,302,5.7719994071218,1.6297114193898343,1,1,23.980366550707966
303,303,7.3384387211075115,9.917904431695783,1,1,19.485290731166785
304,304,7.139215336008537,4.418737983573568,1,1,13.185002911080938
305,305,0.7426588660810163,0.0,1,N/A,16.017399203490882
306,306,7.120792121990296,0.5976307231321487,1,1,11.407819148655282
307,307,4.8067737997261535,0.0,1,N/A,19.34521698640844
308,308,3.5944049654401464,6.521839400731703,1,1,15.644883943088505
309,309,9.018114949773176,7.162948324768291,1,1,16.54701783176003
