,Job ID,Stage-1 Processing Time,Stage-2 Processing Time,Stage-1 Machines,Stage-2 Machines,Due Time
1,1,8.792994007789162,1.704506655345156,1,1,19.616847895316862
2,2,1.541526620497019,0.0,1,N/A,16.648246611042175
3,3,5.544741633631768,8.415200352928641,1,1,21.9294179968077
4,4,4.0744445084556835,5.152154561651515,1,1,23.79896374564066
5,5,3.093434802403885,9.306662986341816,1,1,23.1935749390088
6,6,4.810664753119358,2.33796748160764,1,1,13.704141294610954
7,7,9.750162339186005,1.2263374836430951,1,1,21.305493183596006
8,8,2.0467301361864534,5.750341617401476,1,1,10.395181304431677
9,9,7.8287268585594285,7.5232904210099,1,1,19.128801722177098
10,10,0.5010116002591336,0.0,1,N/A,19.3971966760802
11,11,8.953263519216193,0.961600389356565,1,1,17.47574129248667
12,12,6.326618111463641,3.4730724937610455,1,1,23.775962342067267
13,13,1.3356532145813893,0.0,1,N/A,12.142123458297103
14,14,5.93006560907547,9.986559858901895,1,1,20.96459128227214
15,15,8.867872277539838,4.455005674921141,1,1,17.41296555435649
16,16,1.6286764374882534,4.219656650096999,1,1,22.566722530040682
17,17,4.96227775211959,0.0,1,N/A,16.06092008531434
18,18,3.8844242894334755,9.67163263402835,1,1,17.33920923073446
19,19,1.556437213854518,7.820036262265867,1,1,19.154648433566447
20,20,2.9197635911786324,3.428843095759669,1,1,23.159789088145295
21,21,0.16904398724940206,4.782589632010577,1,1,6.565036140669066
22,22,0.38243486487946954,3.753377387683626,1,1,8.699771962310807
23,23,8.052386911636146,3.055044112570726,1,1,11.680146225683353
24,24,1.8787624392177371,6.83296771050534,1,1,20.498316340941273
25,25,9.201220449731254,2.2902116970123885,1,1,14.164787916441853
26,26,6.282181886551184,2.905297848985524,1,1,10.217861344099937
27,27,0.335644415866877,8.283914932884603,1,1,8.992723461797354
28,28,8.69943183879814,1.8196238260348785,1,1,21.33392063217559
29,29,9.820732869377519,0.0,1,N/A,23.13900168390932
30,30,3.9124043655489107,8.371887904025963,1,1,21.362706508451176
31,31,1.1907220613048985,7.908922815932274,1,1,20.882981454031423
32,32,6.934896326024095,0.17953912835986685,1,1,19.01074138279065
33,33,2.1712340941439834,2.685984631114856,1,1,14.895645661103458
34,34,6.7347141603335645,5.205853888607674,1,1,15.614656107659576
35,35,7.878595805994824,9.765387978412877,1,1,21.3884651251052
36,36,8.984119323118257,7.047915049191498,1,1,16.979413769718427
37,37,5.985802407164734,6.7999238360206204,1,1,20.823457426134375
38,38,6.385472455778697,6.5967241188236585,1,1,21.522899822293336
39,39,8.112984632488947,1.038790706231496,1,1,11.014155896131134
40,40,3.193721215250187,2.871941600092315,1,1,11.940886295708484
41,41,5.2165589468421505,0.05993920314281698,1,1,15.405221256426792
42,42,0.05236956964670192,0.0,1,N/A,8.121045833335824
43,43,2.016154963138288,1.2257859161480866,1,1,18.583833857520695
44,44,5.5598334579291695,6.033965477103374,1,1,15.465980181806636
45,45,3.351648245805748,1.888534872622658,1,1,15.46629052148642
46,46,8.96110806406979,8.194108841403118,1,1,19.85369367176083
47,47,7.339998233482193,2.588334348928277,1,1,21.49551699078755
48,48,1.4873737268433818,4.422926446560028,1,1,16.778565962847647
49,49,0.9228818202458378,0.2807052014717404,1,1,5.928697414245979
50,50,8.226323432858692,2.5269626599906503,1,1,12.253687200538042
51,51,3.195343221999579,8.523592091204096,1,1,16.044889990557557
52,52,6.291128725630103,4.417774997503026,1,1,16.794024593161037
53,53,7.24591899936269,1.9139726177891048,1,1,21.09141090375951
54,54,6.651059483814269,3.9962027932997044,1,1,18.788071717236377
55,55,9.335870072923598,3.019353047446626,1,1,21.09252679913873
56,56,3.6551409253650347,0.0,1,N/A,20.546311415663006
57,57,9.3839215078502,0.0,1,N/A,21.144441468093337
58,58,8.455216711983125,6.923436772226274,1,1,20.5891692883266
59,59,2.1296717282528634,7.0931798175856215,1,1,14.550396097110452
60,60,7.203257525160013,7.305214514022249,1,1,20.257419188669058
61,61,1.6602488260670056,9.951035056756222,1,1,11.628771780532267
62,62,7.693024953581935,1.2684163277891725,1,1,21.896056826288977
63,63,4.456445829140183,0.0,1,N/A,20.427398316437312
64,64,5.227902187003567,6.854582413417543,1,1,15.255206602921156
65,65,2.3339048344118307,1.8171885881829508,1,1,14.533696159676351
66,66,1.1453949593700574,3.2666212769230984,1,1,21.502158450702794
67,67,4.797060155484289,4.67006458543646,1,1,22.610979708328124
68,68,6.738915437061484,0.0,1,N/A,13.4724931931173
69,69,2.3580809796221933,2.0279613116436543,1,1,4.7544750423939535
70,70,6.361482899141788,0.113828926977243,1,1,14.693230162812537
71,71,3.2393354550872546,1.6422734589326016,1,1,15.49829189917861
72,72,5.360540392700781,6.943944011990455,1,1,22.371253346022787
73,73,6.339292440835662,4.747701732792771,1,1,23.56250854283795
74,74,4.253851133393727,5.679990894590771,1,1,12.635765573626486
75,75,9.691877722141601,8.595133687698988,1,1,21.014650066041145
76,76,1.8578965272378367,2.830024327052847,1,1,15.494501648790134
77,77,7.143240824515457,0.40939441526860354,1,1,18.22227811182144
78,78,9.364902384242233,3.3290060862307156,1,1,17.129832949111375
79,79,1.4142558612143163,2.226247892925418,1,1,14.479558571069399
80,80,9.001818917516411,8.36446663956655,1,1,17.82779453578765
81,81,1.5100494322813662,7.132892429356251,1,1,19.057937196631542
82,82,2.376524303599188,1.319891889532866,1,1,20.82840185881321
83,83,9.59264786938425,0.0,1,N/A,20.72133387681339
84,84,2.5214260145802694,6.430659263288137,1,1,20.632868934599717
85,85,4.269638644020583,0.0,1,N/A,17.17949252919814
86,86,8.35993637218038,0.0,1,N/A,13.816022413719569
87,87,3.62352272711018,4.733847966068836,1,1,10.009643074525034
88,88,8.479989651034197,9.496059411830855,1,1,19.946011894230665
89,89,8.132496413453223,6.3707694182972645,1,1,23.473491425929467
90,90,7.265198895571335,7.115255043718356,1,1,15.625855232078623
91,91,0.4127279761687508,3.9679080797275015,1,1,23.058865498886632
92,92,0.6224292617254046,9.088137321237275,1,1,23.93865287578985
93,93,9.33599730911448,8.306141348353435,1,1,18.070142069899646
94,94,2.7400609892287386,7.723809180808105,1,1,19.699703106224998
95,95,1.854475021267954,0.0,1,N/A,20.291478063591278
96,96,8.610145097017075,0.0,1,N/A,23.009081642657854
97,97,9.578444089123895,0.0,1,N/A,22.33622149584464
98,98,2.1412219211742345,0.0,1,N/A,11.960693008399312
99,99,9.928312134781384,8.165282955715071,1,1,18.240383213799422
100,100,6.529587800259864,0.275727008918506,1,1,9.851843713862989
101,101,0.3366487358052661,7.895170897864756,1,1,23.323006148827872
102,102,8.755993136999187,3.8366523120974416,1,1,20.99442678115434
103,103,9.429316241832112,3.2507780607931513,1,1,16.877970782729157
104,104,3.1399888423279476,0.0,1,N/A,17.429238399047335
105,105,0.518490709982089,4.090068052039219,1,1,14.010189055812855
106,106,0.03752436738554632,0.3324351552580973,1,1,13.91231592419003
107,107,1.9734947929553859,9.06400421944944,1,1,12.51801831993529
108,108,1.4082319315468694,4.523534346877316,1,1,11.02755760730967
109,109,8.977150945400119,5.551482639771988,1,1,19.59787374858888
110,110,5.607156912356493,0.0,1,N/A,15.169752949056395
111,111,9.335233678094536,7.127940937739627,1,1,22.489034852792052
112,112,2.8327884574271334,6.905854932179906,1,1,22.743651165290473
113,113,4.398965685965975,6.663842505923129,1,1,11.41733753899642
114,114,7.86039182607813,7.610898983026658,1,1,21.711919004505607
115,115,0.42656289896946253,1.763213784435479,1,1,7.798474289492326
116,116,7.708174090051517,5.296949469700085,1,1,17.495204931744475
117,117,1.6805340791575862,6.598857555367022,1,1,19.031030001825343
118,118,3.5674497125204994,8.905531642005773,1,1,18.679072796706805
119,119,6.845129179363983,0.0,1,N/A,13.985527641627167
120,120,4.5689702481888546,2.9056063453357286,1,1,22.99899077361404
121,121,8.544036740503067,6.475723359779443,1,1,16.16317007856024
122,122,3.0875833456455815,0.2652050905067638,1,1,3.895676477792536
123,123,0.2842969803223372,2.51524134886147,1,1,19.231064746057765
124,124,6.037204498517777,0.0,1,N/A,14.683437133632768
125,125,2.6534005789319917,0.14456835167399484,1,1,14.086658915392812
126,126,3.8281558261211526,4.871423399937216,1,1,12.252362201389683
127,127,5.130829658223379,6.761492270254377,1,1,16.05057974738307
128,128,3.344657437318702,0.0,1,N/A,16.92171242539073
129,129,4.56004084629943,1.0753914811660625,1,1,23.17262931287415
130,130,3.581480617090722,4.528903936211489,1,1,18.106114162703406
131,131,8.507669961184032,3.7174356654584804,1,1,16.39287686427267
132,132,5.122398394550448,0.0,1,N/A,14.94171745116746
133,133,3.958350462770274,8.690898121522752,1,1,17.316322942468275
134,134,5.197750145674693,0.0,1,N/A,14.059476168107341
135,135,6.584033242848054,8.301609905952331,1,1,22.67840910479787
136,136,4.731222608070604,5.488929245387753,1,1,17.184668976394757
137,137,6.538367810021478,3.917030214401145,1,1,17.37292402011697
138,138,0.08574999081426338,0.0,1,N/A,16.2484461410429
139,139,3.8226121191223674,5.853954980512236,1,1,14.487877324117822
140,140,0.05912160184514903,0.0,1,N/A,19.53045474480429
141,141,1.174575081566982,0.0,1,N/A,6.62830958718949
142,142,0.4086938145804164,0.5133083226530821,1,1,4.77853059922256
143,143,7.743897261636681,9.854949772952477,1,1,18.43697814867124
144,144,4.981187006296935,0.0,1,N/A,22.264823889769936
145,145,2.691466249614268,0.7098602874698956,1,1,14.926529241267655
146,146,8.856116786970645,8.558622892114537,1,1,19.32698126820824
147,147,8.107314176767666,1.9448291684564656,1,1,12.739841053508098
148,148,1.3428133441148904,7.5606514030298575,1,1,23.914463208989382
149,149,3.5186728800668754,9.441092820758282,1,1,13.420462873820876
150,150,6.394622149073629,0.0,1,N/A,23.724609419251088
151,151,3.191312498117218,0.0,1,N/A,21.334981229679315
152,152,3.8794288327617723,1.6339104704244012,1,1,15.858511693895817
153,153,7.336883702045687,1.0084928646261249,1,1,17.22655679698824
154,154,4.378801481036269,2.4776642360284162,1,1,22.10630326433128
155,155,6.0463858714452865,0.3551892610691709,1,1,16.73122075586543
156,156,2.3644880967076656,0.0,1,N/A,23.200033196429423
157,157,6.258287262941888,2.7591968877777906,1,1,20.291968311991276
158,158,5.838742735558825,1.5825998255046536,1,1,11.637308626116424
159,159,5.255056428883282,8.134965807976474,1,1,13.807073045760852
160,160,1.3753211071699756,2.5417257543244807,1,1,11.766196855274504
161,161,7.791873933456083,3.810213104028326,1,1,16.022375516769284
162,162,2.1535795668823097,8.840084969350796,1,1,11.409304256496018
163,163,0.26451835542161684,4.6433844392404815,1,1,12.964563486326524
164,164,4.3184778778335495,0.0,1,N/A,11.47635323809848
165,165,1.4913450540118922,4.479730895768626,1,1,19.565696725650163
166,166,3.563168418482662,7.606828499131467,1,1,17.35914316346803
167,167,8.83928907747559,8.314697275462521,1,1,22.814209153886072
168,168,5.920152226897498,6.703243799472842,1,1,13.26059876673663
169,169,2.8654102247153688,0.0,1,N/A,12.632617794128187
170,170,2.8145296333039047,0.9542581858755128,1,1,14.391108214183944
171,171,0.6668507415192915,0.0,1,N/A,15.484814213160512
172,172,7.0811756321993204,8.871955308997578,1,1,23.081160498325332
173,173,4.788080235667758,0.0,1,N/A,7.096733713404924
174,174,4.4880117381160565,0.0,1,N/A,16.61688188059879
175,175,1.6508834833179409,7.472449096085275,1,1,11.739539878848829
176,176,2.6005934771086006,2.502522318921762,1,1,7.306244755140068
177,177,3.7914296945819292,6.586614239577963,1,1,12.336181212944943
178,178,0.9559852059208662,8.40668315087775,1,1,15.239751667456717
179,179,9.74136801888293,7.312363271446943,1,1,18.34745845180217
180,180,4.729140750717931,7.840178434041773,1,1,21.37680989329423
181,181,5.774792053605946,0.0,1,N/A,15.521638858456143
182,182,0.1796632665467024,9.21386757692757,1,1,17.319910675478326
183,183,3.336004527867856,1.2543528107347246,1,1,19.811678195273466
184,184,4.739920098109277,3.2747869233626226,1,1,8.020418434123485
185,185,5.401027995843489,5.78911674126883,1,1,12.777939741970073
186,186,0.5804279914226651,4.357305433012728,1,1,21.06006693941229
187,187,5.265499701710046,4.35468284170594,1,1,18.86744064485468
188,188,4.67297727027934,9.959621348685639,1,1,15.033799514088912
189,189,6.654046914611477,1.1353069672025362,1,1,18.527861487633807
190,190,9.580715138671431,4.409789118815875,1,1,16.823939339905493
191,191,6.487472217786703,1.3373204991320242,1,1,19.694136422350688
192,192,0.30657492319566715,0.0,1,N/A,14.954688265329263
193,193,0.07835780592254094,0.0,1,N/A,13.083194706903122
194,194,3.0972402729196755,7.221415365400624,1,1,20.36091365112498
195,195,4.8375264807844065,0.0,1,N/A,21.117625074289712
196,196,9.355513678604176,5.72509110084262,1,1,17.36206387914299
197,197,0.11334319294258655,5.876016847548326,1,1,19.370288350813038
198,198,0.7774236288757097,0.8842672417748443,1,1,7.454106235912668
199,199,5.484824502154236,1.1692101337065608,1,1,12.126336042293982
200,200,5.846450226752219,5.454365187626996,1,1,12.590590448711405
201,201,2.096414074194868,3.1326444333676537,1,1,7.07588520638774
202,202,4.019870281319712,0.0,1,N/A,14.267720677780332
203,203,0.285198168783487,7.4593266780198775,1,1,15.416538749362488
204,204,3.0528325258240754,0.4200245811261638,1,1,17.95899849842925
205,205,9.64796094059838,1.0839844040157598,1,1,13.284493076113044
206,206,8.829109074852294,0.0,1,N/A,16.341281040305635
207,207,6.1428830759115085,2.850915434979541,1,1,22.878973613071164
208,208,1.7709454790718981,5.24393021455282,1,1,8.189694726673835
209,209,2.1806253840295406,2.2679986348008607,1,1,10.207695018452918
210,210,7.081592152755368,1.5419525571002046,1,1,12.573207193354083
211,211,4.122196981808558,4.8169371645204615,1,1,9.470460022828052
212,212,3.369280246823255,9.97880330918659,1,1,17.029547335437233
213,213,4.858294276530476,9.75302278311253,1,1,18.357346931839466
214,214,8.252333921378664,1.9424936626289935,1,1,15.20433538451789
215,215,1.1409449002619598,7.933261015905746,1,1,11.449138179527509
216,216,6.9692321089984635,4.501100676021982,1,1,14.99618565249493
217,217,9.989819632648903,8.752784614050487,1,1,19.89709803265552
218,218,6.627744769212606,0.0,1,N/A,21.6406189112332
219,219,9.79362282268256,6.044594834509644,1,1,23.863557045570786
220,220,3.110245056348533,4.697482610986644,1,1,14.02074780415768
221,221,4.553054438686123,0.0,1,N/A,20.473178675890594
222,222,0.1132703224764331,8.29249726590956,1,1,12.212249291887144
223,223,4.70837082725396,9.100740773654257,1,1,20.948293872716317
224,224,8.173982861790241,3.5404687587279673,1,1,12.36773196023563
225,225,4.755720702606043,0.0,1,N/A,23.027431025388974
226,226,2.319969943454728,7.225557994628291,1,1,18.002277867664894
227,227,7.347197532640958,3.832972491890753,1,1,22.60126502204696
228,228,1.8053490400667338,1.1459810673065407,1,1,17.904023247238186
229,229,1.3499989342972762,3.3441071130189117,1,1,11.029638978966105
230,230,0.38424781357135895,0.0,1,N/A,6.431506950900959
231,231,3.020298891288161,0.6096998216810223,1,1,11.569393453501148
232,232,1.6684337753785516,4.099665039536803,1,1,9.908261394482029
233,233,1.3184867583821525,5.5748256238714085,1,1,22.409737061910157
234,234,5.500465818335638,3.047030358817775,1,1,11.969647678525032
235,235,1.2326234797160063,3.859529971634832,1,1,20.45418297445913
236,236,3.092981659070717,0.7707499462243828,1,1,11.278632912736928
237,237,7.529186554508053,6.171761106920098,1,1,17.700203040681064
238,238,2.3046746476475253,4.38915667619661,1,1,21.24677023086066
239,239,0.281048551863623,5.711230341383042,1,1,14.974957874746424
240,240,7.068462056953459,0.0,1,N/A,15.474424123454158
241,241,5.900717199751274,0.0,1,N/A,17.38692361975746
242,242,9.696864054194176,7.917966108331997,1,1,21.39705675766114
243,243,4.029207222564412,2.7650934428968013,1,1,8.97692688848506
244,244,6.091249850114709,4.81364717178997,1,1,20.113901113982102
245,245,0.3370413786903981,2.653309576010253,1,1,19.661747199135707
246,246,7.875854029351139,8.660406551267037,1,1,19.2629781773987
247,247,3.8083165246391912,9.686213098350212,1,1,19.007539105987753
248,248,5.107366601601509,0.0,1,N/A,17.58850598724248
249,249,5.531083986120608,5.147032363846299,1,1,13.562267589322405
250,250,6.956738913926626,2.1953783489613876,1,1,19.338777201376146
251,251,3.3343035541048383,4.634979921052686,1,1,9.99420729182013
252,252,3.4772737736758086,7.304990056441552,1,1,18.859471974196488
253,253,3.3390753692042265,1.784546919174097,1,1,21.089390520195117
254,254,4.0264004502375625,9.059302557694258,1,1,20.098288320610322
255,255,6.804326953756245,9.972298934658612,1,1,21.959691808432314
256,256,7.526029845590262,7.031788099033593,1,1,18.20447489251977
257,257,3.0656579817371146,9.993114793914526,1,1,14.1297910266752
258,258,9.946916731994552,9.374318071615402,1,1,20.046987200233698
259,259,9.998293534433758,3.592206273120795,1,1,22.519278019033536
260,260,6.001084073792975,0.0,1,N/A,23.732250081919837
261,261,8.051878511668274,0.0,1,N/A,21.58833634673739
262,262,5.962428643428951,0.0,1,N/A,19.497131995729003
263,263,5.736766744575638,4.5468563149225325,1,1,18.97459274155708
264,264,4.981566804897267,5.424541886367244,1,1,23.46243273347482
265,265,0.6960620051823296,4.219836792679109,1,1,12.232367408862409
266,266,9.569567934718307,2.2504261388992552,1,1,21.99683218691927
267,267,2.6565418917489305,9.936698530389986,1,1,21.62859857519618
268,268,2.3660592111357905,0.0,1,N/A,18.868296036260215
269,269,1.2575502658761362,3.465040670071656,1,1,19.746797910388672
270,270,2.6577423920160537,0.34439124455328596,1,1,16.576169401902963
271,271,9.485376318747768,4.780703817472775,1,1,15.320728378619744
272,272,6.179924595392972,7.1513215897356375,1,1,19.84619644571058
273,273,8.82770430628132,7.519767072222086,1,1,20.60282137197435
274,274,0.1712808488539741,0.0,1,N/A,22.511059051743153
275,275,7.053082270610631,4.649421986616061,1,1,13.884529383487248
276,276,4.51439048803589,4.427116644271955,1,1,23.576269384586073
277,277,0.459616923094055,1.786688917558873,1,1,9.80120697117227
278,278,3.698496786323646,0.5628945854762635,1,1,23.464248494309047
279,279,1.268403451082245,0.8667340303027615,1,1,16.373387720498457
280,280,6.959050781863466,0.0,1,N/A,21.312045616367847
281,281,0.7042877760528776,9.582079397341598,1,1,13.84441853279975
282,282,5.993827166135482,7.973736804844069,1,1,14.276739989474123
283,283,9.030923673070761,3.046917111673576,1,1,19.24365790715026
284,284,3.0435448447071725,2.4219449662141757,1,1,23.894865232176063
285,285,0.6450394190624731,8.44917504279245,1,1,10.815332529441303
286,286,7.796244219759164,9.729997188760734,1,1,18.040959623644376
287,287,8.096470437890472,0.0,1,N/A,23.80498903803253
288,288,9.131551108722014,5.354549740539328,1,1,16.26637235086389
289,289,0.23368311220160143,0.0,1,N/A,17.734239537538215
290,290,3.9499850960032634,3.906061074044096,1,1,9.062507947498958
291,291,3.2821905708550894,2.1925296884933045,1,1,13.241112595577173
292,292,2.0324192001400867,0.0,1,N/A,23.37152933832124
293,293,2.285790640493035,6.196248953576249,1,1,21.703234747909956
294,294,7.963493149098985,7.934262913165866,1,1,15.989703450736199
295,295,8.821042278082508,8.592930592373714,1,1,21.65999625108351
296,296,2.5524279545238757,6.446297169429674,1,1,13.119804951412021
297,297,8.869100902227867,0.8388479359029299,1,1,14.961026489559554
298,298,9.055747325879954,6.717529764974572,1,1,21.6831179186308
299,299,9.204495310214343,6.894614623115762,1,1,18.59301570149751
300,300,1.6972140736069496,4.354195634489796,1,1,9.206498171189205
301,301,9.48411071366924,5.803934031844802,1,1,22.84262775094899
302,302,0.14118508089852266,7.481804339519251,1,1,11.769486412997704
303,303,4.10243987420642,9.880198954093519,1,1,23.244475433512925
304,304,5.559108464364763,0.0,1,N/A,21.000116190268898
305,305,4.311444895499152,9.521245697497957,1,1,20.516786198259016
306,306,6.1485176077121615,0.8644567754993349,1,1,16.097537167252895
307,307,8.932394204420163,1.5791771720910164,1,1,12.55194385569556
308,308,6.870216476489554,4.996043279558908,1,1,23.479185508647877
309,309,0.6892799632092417,4.56622392212985,1,1,16.26067588479377
310,310,1.982480638602292,8.031310521743283,1,1,16.62761948874993
