,Job ID,Stage-1 Processing Time,Stage-2 Processing Time,Stage-1 Machines,Stage-2 Machines,Due Time
1,1,3.473238512640756,3.015700673570778,1,1,12.23894638535507
2,2,6.416400635031188,2.9398934380282595,1,1,16.830509749259917
3,3,2.9478239943341866,0.0,1,N/A,6.087431484800363
4,4,6.160927507669578,0.0,1,N/A,12.807466686057225
5,5,6.865269870118283,8.253184313138318,1,1,15.383386337950107
6,6,0.171061949294935,7.95759022496505,1,1,23.55195707879722
7,7,4.752690425434391,0.0,1,N/A,21.72368388846475
8,8,9.480556329836196,3.09478100791877,1,1,17.454849067058106
9,9,3.903331983948428,8.472024911510212,1,1,21.57536565689857
10,10,6.285841202837867,4.209750542652843,1,1,12.858198238897382
11,11,7.290269354784504,1.8866991166270863,1,1,20.384001513552178
12,12,3.5082119648250787,8.593325235000052,1,1,21.086966739929586
13,13,8.932758911777478,2.23828790702032,1,1,19.859776057647462
14,14,4.338545556576403,0.0,1,N/A,14.644271129568864
15,15,0.5079034463865384,2.33206089636365,1,1,7.548425830161952
16,16,9.152118874779859,3.7204963295785918,1,1,22.118162099989156
17,17,1.3390514945124488,3.732800690967799,1,1,7.840679965793623
18,18,4.92543449232278,6.4018425795436515,1,1,22.637090137315383
19,19,7.960166794288761,8.20692678334276,1,1,23.13217408100339
20,20,5.371030252084438,3.6121517265290626,1,1,10.889676545335567
21,21,4.368922912907122,4.594064425997143,1,1,13.717492266336237
22,22,8.985272493559163,1.0672227048494087,1,1,22.588832260112568
23,23,2.626454691084943,6.780411303133063,1,1,14.694245142398112
24,24,6.827019794252749,5.134604663256659,1,1,14.580782928413552
25,25,6.9111459584742825,0.0,1,N/A,19.331553215921772
26,26,2.721850614053476,6.014248911192302,1,1,18.356738887472243
27,27,5.273952410142085,9.4158537099302,1,1,17.326845835825843
28,28,7.023262949846391,0.0,1,N/A,20.131098623618428
29,29,2.73584651032158,1.5883047337137934,1,1,8.639663967494538
30,30,5.0017137811795855,0.0,1,N/A,20.597961213347446
31,31,5.8139348758978215,0.4474661185479334,1,1,11.622037287112573
32,32,2.9700957047417353,0.0,1,N/A,11.145096130152162
33,33,6.421560096175401,6.108866967095285,1,1,14.88277249317852
34,34,0.4996873413505798,5.031654893583012,1,1,6.8656489099735385
35,35,6.274568534473919,1.0122725185167325,1,1,13.691995600953131
36,36,8.763056641201008,2.7596859729398746,1,1,12.720547250571602
37,37,3.198836931295419,2.8325547767186343,1,1,16.226700022752592
38,38,7.391940216896952,7.152137815872459,1,1,20.134693847282435
39,39,6.1074754434917535,9.147146602884012,1,1,17.371797157389278
40,40,4.305621812461158,9.064275723941165,1,1,13.975363314435896
41,41,8.604987025165322,2.166804951494888,1,1,14.23125483999706
42,42,9.563963949187283,6.918346127242705,1,1,20.97560424980438
43,43,3.6204429384188517,1.774713540596945,1,1,15.41632672109954
44,44,0.9158285361157514,6.705106799437035,1,1,13.894548775722445
45,45,6.910564491656807,8.770316624010002,1,1,23.455253241929285
46,46,1.544516234003941,0.0,1,N/A,8.317737043675585
47,47,1.7788145429874958,4.699988536327414,1,1,9.608520683278702
48,48,1.1449147300246998,2.8130887004504554,1,1,4.44423130603887
49,49,7.092187893565706,5.207832610531087,1,1,19.802800696459386
50,50,1.5679689206151581,4.460848931322924,1,1,13.830316938607622
51,51,4.683797270194577,0.5663322170494856,1,1,14.268606119227911
52,52,2.1814008407613192,0.0,1,N/A,12.541610180197743
53,53,6.180718005702348,8.822549611407645,1,1,17.182639056360863
54,54,7.594810658037352,4.5029942230905995,1,1,17.66287584728994
55,55,8.498357356248368,5.428172477569754,1,1,16.650338698473956
56,56,3.60761220010187,1.4679402126143182,1,1,5.19926263935201
57,57,3.885328347233594,9.235294244066214,1,1,23.701043386021126
58,58,2.0179081799036047,0.0,1,N/A,10.44172074846038
59,59,5.313654485681816,0.6326355750617252,1,1,9.782396021945459
60,60,0.6247055585208405,6.308686110249331,1,1,15.160089618957787
61,61,2.7142921458933267,9.352354782016686,1,1,19.614025142819038
62,62,3.1708310913852022,5.800162189868202,1,1,14.16389785622852
63,63,9.75815129740284,0.0,1,N/A,15.893453203582425
64,64,7.356036802338426,9.693881497481003,1,1,23.859075879642862
65,65,9.764343496956746,4.698908033376687,1,1,19.25056871155833
66,66,3.369772989975386,4.544402111662004,1,1,14.542376771411242
67,67,9.157032981188443,4.247538281737061,1,1,22.51634811572719
68,68,8.007715211713798,3.2427122223469063,1,1,13.649146571229641
69,69,9.818875872789288,2.8253984470395457,1,1,20.605859121054497
70,70,0.2214450898417497,0.5196286444103448,1,1,2.1088808167722415
71,71,8.887922566143795,6.303085397765106,1,1,20.061680437358348
72,72,4.831957654687793,9.559085100575098,1,1,16.46283037959312
73,73,1.2000272220136277,0.0,1,N/A,6.984623769764562
74,74,4.416880081565639,6.804156927155255,1,1,18.709612710632896
75,75,5.475139382982389,9.897973283097713,1,1,20.151445603146108
76,76,3.660793923912805,3.8569428268357098,1,1,23.530499014809372
77,77,2.838547301971576,0.0,1,N/A,17.381120937051808
78,78,4.32913577985476,2.9179823997874186,1,1,19.537289691092823
79,79,7.570314005304368,0.0,1,N/A,12.376664772579094
80,80,5.375117456531378,0.0,1,N/A,7.27636603966446
81,81,9.217768987567213,0.7148227058335277,1,1,16.40348307597295
82,82,9.197974536301924,1.1988421441851582,1,1,16.749421981828515
83,83,6.728760929605659,8.502735195179424,1,1,15.750214816453331
84,84,1.7804879804488871,4.0241494230503925,1,1,14.956372526171174
85,85,5.590376827189195,5.855132741828911,1,1,17.561647947953674
86,86,6.14041518962903,9.266412315122613,1,1,17.943539847724008
87,87,1.6787543745924638,2.688767910373413,1,1,13.403827632518109
88,88,5.667627899119244,3.434088411946531,1,1,12.593718080327037
89,89,5.877342105089704,3.298010523444602,1,1,23.853994769920714
90,90,2.2248006233839313,1.2573913491963784,1,1,20.160646519567134
91,91,4.285906013825639,0.5587950931624619,1,1,17.84219739832926
92,92,7.961264316654639,2.734076234918028,1,1,11.706723047870431
93,93,3.159137127430016,8.904146987260141,1,1,17.1566123163387
94,94,5.353415723565128,0.0,1,N/A,18.750363505306588
95,95,7.570857109590543,0.0,1,N/A,22.32799470854691
96,96,3.827337904217262,9.821362182592974,1,1,19.84164840125655
97,97,1.7077398564285995,5.614927524593113,1,1,12.376081498336728
98,98,6.5880135723647175,7.30515951269734,1,1,20.629085274079387
99,99,7.259044174560615,5.298627312088633,1,1,20.225280914596752
100,100,0.2834584467382595,0.0,1,N/A,9.414674354708765
101,101,6.683640955644366,8.478569755149557,1,1,18.799158686752616
102,102,8.879189560657156,0.0,1,N/A,18.4992829832238
103,103,1.329417211748578,0.05392651141799987,1,1,20.539958164696998
104,104,5.72533306885017,0.8169153464898249,1,1,22.15896216845523
105,105,5.471983089810799,4.67893338080602,1,1,17.55110142654065
106,106,5.774104843269951,5.6395054091468975,1,1,14.238971925788576
107,107,1.4956333199915717,6.374391935508095,1,1,23.460856954129536
108,108,7.850563344611945,5.797605710621302,1,1,13.723274973303363
109,109,4.306462139488447,4.563646490485196,1,1,11.861989425193578
110,110,5.263567724927663,1.425945075629237,1,1,9.766914022377714
111,111,9.853614439189096,8.838885651287706,1,1,22.814628300716954
112,112,8.100619990154694,0.0,1,N/A,20.567586234628784
113,113,1.215339380025745,1.007168089172653,1,1,4.423116800610535
114,114,8.098058148822435,0.29331678234765124,1,1,20.72878295725672
115,115,0.21680046136514086,7.786041392382746,1,1,8.112594286816181
116,116,7.032552840380326,4.436385656940787,1,1,18.805519730077762
117,117,1.3060523422072867,7.367774256948326,1,1,13.225837926852389
118,118,0.3990297424899014,9.05950272836233,1,1,22.3741837042053
119,119,9.526947237726594,2.6108406041209165,1,1,23.669249503050164
120,120,5.741464710754092,4.500883920264776,1,1,23.334675912475927
121,121,1.802967468260921,0.44721289273544795,1,1,5.655917634407818
122,122,9.174135319746613,0.0,1,N/A,17.10263214688039
123,123,9.221192313594303,9.050954966997386,1,1,21.78237767758158
124,124,3.73384511899411,9.74695060843683,1,1,15.696213569997585
125,125,5.325121778901884,2.840475591637354,1,1,8.948359054978159
126,126,8.14340065484332,7.358137004505529,1,1,23.7263848369183
127,127,1.9031053804316111,4.016685160442503,1,1,20.410318894032564
128,128,5.112368895997199,8.30157343638808,1,1,23.34197955274559
129,129,7.614155303102127,0.7937333422112713,1,1,19.696216498524585
130,130,5.47151858895591,8.363432235175285,1,1,19.187548136450737
131,131,3.7730806680167794,8.026876933801923,1,1,15.644385365477758
132,132,4.5512379155982305,0.0,1,N/A,19.507986491624933
133,133,9.716058453767705,9.582123890533428,1,1,19.837430252012233
134,134,4.896426548196681,1.86849636550252,1,1,15.524099806437462
135,135,7.370110429696474,5.478453420279217,1,1,16.638017838726846
136,136,4.36453151338589,5.640812344115992,1,1,14.699883673825507
137,137,4.0547036407436625,6.456847703209732,1,1,22.905873119161946
138,138,6.091065609800129,5.084549998437337,1,1,20.560628866048766
139,139,1.9510101546756065,0.48556446732279324,1,1,19.33545126610182
140,140,3.4877114716499613,0.13740228163389934,1,1,16.067382590453086
141,141,3.5968564261852833,8.558099316626967,1,1,23.34005955178775
142,142,1.4565686251796495,0.6110758467261945,1,1,19.068400296902663
143,143,3.952325594638637,9.894453166287573,1,1,23.98867844516694
144,144,5.738074153600139,1.3725726832919172,1,1,21.04865252487128
145,145,7.8515480677152185,3.49805930277165,1,1,15.222217366473949
146,146,7.153765052762977,4.679766664857016,1,1,23.233957272641405
147,147,7.924899390908133,7.308618916500946,1,1,22.230090737901566
148,148,5.555049369663667,5.699472596107271,1,1,18.831875915033056
149,149,3.20574779267813,8.654311687357003,1,1,12.47534647454036
150,150,6.830215786595311,0.0,1,N/A,17.40317588515803
151,151,5.964077080605183,5.487284685199994,1,1,17.027669900665714
152,152,4.124340399543801,6.6619713127876325,1,1,22.044757245904194
153,153,2.11594546442854,2.721439420493841,1,1,22.266862943081655
154,154,6.985719505238565,4.005578174856623,1,1,12.7607584195045
155,155,6.658214357723923,0.0,1,N/A,16.61196075822684
156,156,3.809174787148737,7.337528283071887,1,1,21.650918943716743
157,157,7.500576221670708,0.0,1,N/A,15.7413775430505
158,158,7.052122997359165,7.891026621205926,1,1,22.300585350313103
159,159,0.10086687967261088,1.0805046318144351,1,1,12.518437893574308
160,160,2.1035212174511098,4.5516963525743215,1,1,8.413293067347182
161,161,1.0398406575772923,8.649472540926165,1,1,10.202216526509154
162,162,3.7154510475488545,5.192261546665869,1,1,18.607126842463686
163,163,8.41753195841386,2.034839638824766,1,1,12.002086994513387
164,164,0.9881509121226062,9.732384171990242,1,1,12.018821380262512
165,165,3.7846605126112234,5.5993776342825665,1,1,17.597883550209925
166,166,7.269662895779868,0.0,1,N/A,17.411173357565954
167,167,3.270371831456169,5.476750643384286,1,1,11.103685644899668
168,168,5.874253677768708,4.01133334794236,1,1,19.551762951086882
169,169,7.0037076942361045,0.0,1,N/A,12.57742169497428
170,170,0.19660962147476146,3.742646836639558,1,1,19.54488634544274
171,171,4.750662381812877,5.444062358200723,1,1,23.45308217774113
172,172,6.837393135017598,9.065082647338263,1,1,18.122665331051635
173,173,3.2171197289149767,5.54528724260778,1,1,8.817726318131466
174,174,6.339268035932158,9.704585474058229,1,1,18.403171990895476
175,175,1.1523439783539013,6.853780661141659,1,1,13.531461370461049
176,176,3.946878071333985,1.4896114557666518,1,1,12.985244940943176
177,177,2.6440713384514183,4.721146645942749,1,1,20.39052691213022
178,178,5.722796733425227,2.9279780061497904,1,1,19.39557312481039
179,179,9.1650717686482,9.658447333848347,1,1,22.22422839702157
180,180,9.262838328985952,6.649345240295716,1,1,22.553289610059082
181,181,5.533788538254934,3.5292132316249814,1,1,15.665204491331874
182,182,8.39367827424175,4.015014091447596,1,1,16.96111426395774
183,183,8.358438218892966,0.4521687989008638,1,1,9.762537523964415
184,184,9.88769616904328,4.035451268431279,1,1,16.1145869479694
185,185,2.4001203973448004,0.0,1,N/A,8.192714536010396
186,186,8.0915250980436,0.0,1,N/A,21.45649188622682
187,187,8.407842250122846,7.220090042921658,1,1,15.882144139515475
188,188,6.876078434413262,3.622552074831927,1,1,20.8913589866411
189,189,4.266240749477165,3.8889525357297137,1,1,20.341532877479853
190,190,2.6678360522852707,5.3053433216657355,1,1,18.45714291725794
191,191,7.329305330807819,0.0,1,N/A,14.848616253292212
192,192,0.2375321678512643,1.0279480725988877,1,1,9.512437731160848
193,193,6.989184124715084,4.027248802142269,1,1,16.92814545199189
194,194,1.4030046065180424,3.7417235818629013,1,1,14.50820851861653
195,195,7.6854100665996805,7.67098820860518,1,1,19.424174394075152
196,196,1.085407546291235,0.47141922701378514,1,1,14.984258880812177
197,197,7.58348072309936,4.326816575028772,1,1,13.729294176972306
198,198,3.0126985267043063,1.304616081049863,1,1,17.71747741992443
199,199,9.28313760367039,0.0,1,N/A,23.57985338994437
200,200,1.8030987049772662,1.4304857451518926,1,1,10.020978386855168
201,201,7.708847983495678,1.7101410617561663,1,1,19.807080697231036
202,202,7.945499255418401,4.6262637642252225,1,1,23.874358436516864
203,203,2.269149328422749,1.465415031250279,1,1,13.681281983514701
204,204,5.6868725169364165,5.923758074870976,1,1,16.985887684747766
205,205,0.5626910548661113,1.0910361736849272,1,1,8.203993425117314
206,206,7.789804571887039,7.8263714941194165,1,1,17.679573612795565
207,207,5.075733888268674,1.4951289620358066,1,1,23.29416429446072
208,208,9.081169611022549,0.7627711151068595,1,1,12.983270981452161
209,209,6.056628204282316,7.248444914587183,1,1,16.142149977780356
210,210,4.190582927296035,1.7492877890587644,1,1,11.435911772571739
211,211,4.832619184770479,6.512038086496052,1,1,23.42479126530948
212,212,8.34437972044321,5.189797357604181,1,1,14.369840004210367
213,213,1.042026577610532,0.0,1,N/A,3.4770547972938557
214,214,4.756717159875179,6.025847882057505,1,1,21.997749782873303
215,215,8.475860902549943,7.438582468652161,1,1,23.850655236257175
216,216,6.5726336059614,7.714701280371301,1,1,16.74933904253232
217,217,2.027222378569057,0.0,1,N/A,22.345810648743374
218,218,1.8847540329131407,4.013336205938928,1,1,7.311767584863352
219,219,9.12715825326515,0.0,1,N/A,17.42996232192149
220,220,2.461956858394715,6.401061220652181,1,1,22.341431185709332
221,221,6.864424434502041,3.8442904179283888,1,1,23.48905499243935
222,222,4.301277868814909,0.0,1,N/A,23.51753939461895
223,223,9.00826288178692,0.158569768703114,1,1,16.55596067617923
224,224,2.0797291521539076,0.0,1,N/A,4.1574533741887425
225,225,2.0977494273468453,3.2784230448928344,1,1,17.116724636397915
226,226,8.78384632581316,0.0,1,N/A,21.05844016400015
227,227,9.149778893806126,0.0,1,N/A,23.698038952315386
228,228,4.785794404057566,7.446639066221196,1,1,15.728044982149697
229,229,4.624560234814787,5.083389793586206,1,1,15.412244927850576
230,230,3.2287163597701496,3.678097016012817,1,1,12.890447576433509
231,231,9.506223795095107,0.1352994876401048,1,1,21.29793019748398
232,232,8.429227400611632,2.6705300613361405,1,1,21.35510085261342
233,233,3.57067503322782,5.954303129765515,1,1,16.00527308125701
234,234,7.839119771302291,9.11688279558473,1,1,18.20315818691483
235,235,2.0752548052289397,0.0,1,N/A,18.92462083857979
236,236,2.0719115557788714,0.0,1,N/A,22.939085519791085
237,237,7.668205053937984,0.10029592793662778,1,1,20.293065442557356
238,238,7.154570940967756,8.199079848314808,1,1,18.16592342858021
239,239,5.402096691374646,5.452942423947915,1,1,20.865518153062208
240,240,6.7316767691787005,8.28268741326591,1,1,18.65664660880402
241,241,6.602130666596558,6.346509980173488,1,1,22.62121417225959
242,242,3.2337227319410697,0.0,1,N/A,12.216027849279634
243,243,7.8230227262373635,8.855484459709107,1,1,19.53860610611037
244,244,4.242945931949796,5.974351182824179,1,1,23.7615416532092
245,245,9.044413224324476,9.950602222281013,1,1,20.110275423717074
246,246,2.6830834876462504,3.6468119994745574,1,1,6.709989114176396
247,247,6.181710340613622,8.887562641792336,1,1,17.893314196868225
248,248,5.016201699984556,0.0,1,N/A,12.478064297511327
249,249,3.8276846908272533,3.3122926748452697,1,1,11.563400099909728
250,250,4.641103469427596,9.645826032166315,1,1,22.698636859483624
251,251,6.6096751848576325,5.051870641542196,1,1,13.825818722577385
252,252,0.7707132784487902,8.666804413719003,1,1,14.488024005787636
253,253,4.003344451654932,7.654761343608149,1,1,21.396065190573907
254,254,5.286085714652671,0.0,1,N/A,16.7771484678095
255,255,6.010735515360398,0.2010536925338824,1,1,22.524673953675993
256,256,7.842890228370623,3.2715394477321347,1,1,12.901014854986386
257,257,7.9506609926868865,2.081199567856258,1,1,11.505138371464271
258,258,0.7725369692309536,1.0962783962875688,1,1,7.585953652659356
259,259,2.6770946849680244,0.0,1,N/A,12.614127991466557
260,260,3.2587659101154065,2.3532933525427757,1,1,23.641389308836363
261,261,7.766449862397927,2.828658955910762,1,1,23.788468206840093
262,262,5.026541030480103,0.22603628651555074,1,1,6.132146811536242
263,263,4.339689549730555,0.0,1,N/A,22.633899894803264
264,264,6.172338258141906,6.947432412391016,1,1,21.25099644822506
265,265,8.195807878286569,6.2213470824417625,1,1,20.955683395654535
266,266,2.5225272485802472,0.0,1,N/A,21.167169206336077
267,267,9.376367226120065,0.0,1,N/A,21.759042524666903
268,268,3.311339906319446,0.08638526749997322,1,1,19.221177377091024
269,269,2.997291467186005,0.0,1,N/A,15.138075106899024
270,270,1.2067324728712725,6.645137033435615,1,1,16.785263562490414
271,271,6.64520597480987,8.544004564364839,1,1,21.936166432031573
272,272,4.204130624082954,8.987122474929864,1,1,16.444922185297553
273,273,9.945224597686975,0.0,1,N/A,16.84051374778852
274,274,2.621874986228654,0.0,1,N/A,10.904555234874492
275,275,6.083729513155525,9.643109140036273,1,1,19.065561223209116
276,276,0.4267011822937028,9.289811625342562,1,1,10.449799660199393
277,277,3.0040664827571453,8.155193342167372,1,1,15.093500077136135
278,278,8.84877970088264,0.0,1,N/A,18.718133043632882
279,279,3.2271569783981424,8.788135533141496,1,1,13.135113043645912
280,280,3.1981472385313614,0.5857939255193778,1,1,10.620016998227195
281,281,4.871334156783446,6.191521996956954,1,1,22.51134417791838
282,282,4.93709694990848,6.767135315712162,1,1,18.796728580698108
283,283,4.590289403975511,5.615980299418765,1,1,12.752360387969453
284,284,7.874874868700009,0.0,1,N/A,19.838216574599027
285,285,4.80038993772761,2.7400572224978204,1,1,11.872871560368946
286,286,9.553033754763026,3.8468973589995525,1,1,15.899257639026686
287,287,5.41277884907561,3.5805586448909175,1,1,18.76208933671466
288,288,9.605472932385574,7.050573187918405,1,1,18.350053378107756
289,289,3.0060218704670616,8.90519411020483,1,1,12.73372255669508
290,290,0.8586388653742694,3.56134280022407,1,1,8.006241345250679
291,291,4.592558900269543,4.197392524111375,1,1,21.870557677878473
292,292,3.4366284773280134,9.918897736333102,1,1,14.293899198796666
293,293,5.5724025484039705,8.170720108688013,1,1,18.191784054747654
294,294,4.611837015046509,5.306237728670654,1,1,13.645457602731938
295,295,2.627390063728562,2.2454607392399395,1,1,6.945963890906974
296,296,7.6880884427416,0.0,1,N/A,13.897462565086379
297,297,6.0806598825947225,8.16152121640526,1,1,19.30564168974563
298,298,6.164874830601024,7.075203536007148,1,1,16.00648661742689
299,299,7.101157714551657,1.8185935232047756,1,1,22.788936756024867
300,300,3.041777356797015,0.0,1,N/A,14.659831874149255
301,301,6.412626227271632,0.0,1,N/A,13.453593170626338
302,302,6.914426982573985,8.026279956251416,1,1,17.497775656510942
303,303,7.880703847282561,1.2625962171576377,1,1,20.176877483446496
304,304,4.209759525605072,5.640014668782241,1,1,16.587044949481825
305,305,2.1461612331022994,5.449534578788365,1,1,12.34339124416889
306,306,8.710909294991845,0.0,1,N/A,21.68707072057959
307,307,2.420491868297675,9.652754839753714,1,1,16.153145888748774
308,308,2.0150054932746597,8.991247795216164,1,1,11.791949359256668
309,309,7.9113555402306845,5.110577420320329,1,1,17.18040408202054
310,310,1.7634946771641191,5.888159726915538,1,1,8.863306936663227
