,Job ID,Stage-1 Processing Time,Stage-2 Processing Time,Stage-1 Machines,Stage-2 Machines,Due Time
1,1,0.36995733779863427,3.7020776198415617,1,1,19.188661411010646
2,2,7.9610365829690934,2.7130779335800694,1,1,16.55808518420009
3,3,5.216098503560175,2.171691817074819,1,1,18.307700750881274
4,4,7.410170080985905,5.280746119074827,1,1,22.183169221398725
5,5,2.833281980213922,6.5473766121791686,1,1,16.222608158613053
6,6,6.892764678022184,2.4913599835285147,1,1,17.605817933990622
7,7,6.177859778776401,2.678124953416945,1,1,9.484593400942636
8,8,0.6466401312856651,3.4921787050415642,1,1,12.430111919879334
9,9,6.278321330980782,5.362087931837797,1,1,16.38540989778712
10,10,1.1115483991817199,3.252155342241708,1,1,12.433361838064624
11,11,9.077301990735151,3.870273258488093,1,1,17.127287555825088
12,12,8.592829647590682,5.039438685099883,1,1,15.550601596715111
13,13,2.2718284227862062,0.0,1,N/A,17.84795691151941
14,14,5.119118423804576,5.419327407237581,1,1,13.37688410214993
15,15,6.583121763516312,0.0,1,N/A,23.56698066224385
16,16,9.32389279209199,0.0,1,N/A,23.127924640262137
17,17,4.498043471477766,5.5986991871694025,1,1,18.975952314477034
18,18,0.08858438076395414,0.8828525241432528,1,1,19.208973811644825
19,19,5.622814277548387,0.0,1,N/A,18.22578855576109
20,20,8.658661397750919,3.0813216988386563,1,1,14.795836134200993
21,21,7.5478785816837,1.2577524060310186,1,1,23.010688643148185
22,22,3.5170267872465866,0.0,1,N/A,20.441445381480467
23,23,9.835128578281434,2.928967962792708,1,1,23.196290582018122
24,24,0.7539508700201669,8.444424114437936,1,1,15.420853768308724
25,25,8.090088263289143,8.497327159360868,1,1,17.754226785717357
26,26,0.6459468524787604,4.726922948797302,1,1,13.136874060319006
27,27,7.200066611290387,4.185361934656906,1,1,11.736282582975793
28,28,9.505543649121254,3.7516806387512514,1,1,21.662776898929202
29,29,9.37599870611082,2.27067647855411,1,1,22.752097704073325
30,30,2.7775720076118846,8.44370621216798,1,1,23.57077635035214
31,31,2.7893731312291514,3.931872544347985,1,1,19.05294571514932
32,32,4.194974832980327,6.210511528162884,1,1,17.664179207629246
33,33,0.6998806694436954,1.806019176111805,1,1,20.845715551044602
34,34,3.925734763674704,0.0,1,N/A,21.38433410836491
35,35,4.512630293032666,7.377244551478147,1,1,21.988721006120652
36,36,2.990195334204567,3.3824537463866244,1,1,15.5878235660169
37,37,2.354842697011529,0.0,1,N/A,15.33260014729039
38,38,0.08401557243243651,7.680090789711955,1,1,20.541749184719915
39,39,1.6818206319951101,9.54239334752811,1,1,21.51847734900032
40,40,8.340888144959202,9.837851320750167,1,1,20.479296611179358
41,41,3.5927401973103743,5.304587643407426,1,1,10.71896977557048
42,42,5.130494228415914,6.376349972696202,1,1,13.416628701591058
43,43,0.5308823325696088,9.758128677967004,1,1,11.69143535340421
44,44,3.1901243111334776,2.1512109365731655,1,1,19.62957412363202
45,45,6.097058275403792,6.133315857094579,1,1,21.84480965041344
46,46,2.8942576448280457,0.0,1,N/A,15.863119593226049
47,47,8.026518069420103,0.0,1,N/A,19.622621259561605
48,48,9.1854169688178,5.416241885069645,1,1,23.249152702921464
49,49,3.8726273739206762,3.341311154306047,1,1,9.654790420598196
50,50,7.443114933842835,0.6218307728149253,1,1,22.596522141143936
51,51,3.8910861699201704,6.313697917921922,1,1,10.32065633578173
52,52,1.2152621297298316,4.052702753760016,1,1,20.464794581106766
53,53,0.06923398380850099,7.879502414917914,1,1,14.57617712831379
54,54,2.12985733250328,7.111491287382872,1,1,13.72779506852001
55,55,6.944303487717066,2.4216417148535676,1,1,11.466165513258163
56,56,1.3055037423356797,1.5996873679443613,1,1,6.80307132281914
57,57,2.741851271028385,7.29374270297591,1,1,17.906671111400087
58,58,5.811872472885835,0.0,1,N/A,19.61278101052589
59,59,9.683847769288912,6.406820071649176,1,1,18.373754276733685
60,60,7.469480938439673,7.365710321500108,1,1,21.8305742966039
61,61,0.6457807938045934,5.080866949218264,1,1,9.944607842635715
62,62,3.59922932032819,1.2317640323415924,1,1,7.708847635130516
63,63,6.246907459908208,2.990953263561437,1,1,20.203815146250115
64,64,3.243817079532244,0.0,1,N/A,23.949929096978416
65,65,7.668708805500693,9.908288655363329,1,1,21.784480707566445
66,66,1.7739717497138108,2.1758451456863295,1,1,19.494939957723304
67,67,6.3999926255269095,2.9856090357548526,1,1,19.88673114029568
68,68,2.512694121078154,1.7057239364649845,1,1,17.082917921700563
69,69,1.7455323173438286,1.192456118938634,1,1,22.108485917302186
70,70,4.4691845719999765,0.0,1,N/A,18.346743306798306
71,71,9.962017255734956,4.765770651262896,1,1,15.099672764906215
72,72,5.808811760081061,7.327732881941021,1,1,19.101440195971684
73,73,4.508367592506594,9.293794227905058,1,1,15.21595216301555
74,74,4.554890391946112,1.7556393986952945,1,1,10.265131768798486
75,75,4.910616775764776,9.630115248811256,1,1,17.37576978217824
76,76,1.157315867274814,5.249095198831418,1,1,9.739436208214558
77,77,3.011248646164705,8.178964627411968,1,1,14.099601169726126
78,78,9.51389855434113,4.23763019142028,1,1,20.834433655349258
79,79,8.07309173476775,2.4000501975665314,1,1,17.607609928059496
80,80,6.981130916337689,7.354003929291557,1,1,23.718683663550454
81,81,2.055311507300309,2.7911018838449273,1,1,6.328443284846915
82,82,9.25702836943538,3.3099907040463075,1,1,15.097573978443986
83,83,2.4770207526653554,7.159035839315354,1,1,21.98623491569067
84,84,5.459359382630019,0.0,1,N/A,23.395787124107734
85,85,3.305478295206693,0.0,1,N/A,12.594767647228052
86,86,5.032641342435753,2.106416075289447,1,1,9.865073849590292
87,87,9.565683903082324,0.0,1,N/A,17.003220486374463
88,88,7.292891627606364,4.310048344314447,1,1,16.497132766207116
89,89,5.176281558954365,0.0,1,N/A,18.62380006294481
90,90,5.837401927047933,8.291987601122642,1,1,15.250269610689081
91,91,4.458466701403764,0.0,1,N/A,14.098287062052671
92,92,9.228739006050303,6.439658637625028,1,1,19.26963871958842
93,93,9.113563229388232,9.20118123383006,1,1,22.52463623879569
94,94,8.283243559859201,0.0,1,N/A,22.168254466852474
95,95,0.6972333951400511,1.3870474096844398,1,1,12.02256168344509
96,96,9.633878757656252,9.772311054027886,1,1,20.07660021741283
97,97,7.344389489256512,2.140833496995075,1,1,15.05631825230158
98,98,9.379684983427904,7.637927484778055,1,1,18.854213401173148
99,99,5.659758407066805,4.051060951510542,1,1,13.797060873111946
100,100,6.447428632899364,1.0435963741937504,1,1,14.98851870093833
101,101,9.451083840111488,0.0,1,N/A,20.784871645829774
102,102,4.270969133547611,6.008657095752702,1,1,12.502939899670022
103,103,5.051685455092194,3.129709280883106,1,1,17.414666973765737
104,104,4.298560750736043,5.0160927372295685,1,1,13.201373586888705
105,105,5.253271059574265,5.236309643904776,1,1,17.97818025639221
106,106,5.862729271296501,9.218618550946703,1,1,16.937252405448103
107,107,6.804070937346376,6.783042237847382,1,1,23.278802763636044
108,108,5.567678296607756,7.063169644598029,1,1,13.276220406646404
109,109,6.9827950760606665,7.610497554183421,1,1,15.861311073713875
110,110,6.9291674942170545,9.193013810058785,1,1,21.587827602698923
111,111,4.8988548778777306,3.8322449390853244,1,1,12.887966107199315
112,112,9.854215941691914,4.70937873906228,1,1,15.921374779192478
113,113,8.285603108034143,7.700798392690986,1,1,16.77328220552551
114,114,9.298857435073243,0.8378158135340918,1,1,10.22060424702788
115,115,9.610654335496356,6.853129867393567,1,1,22.51305037289655
116,116,3.4646390953547157,0.0,1,N/A,18.32044529460486
117,117,2.298894499491575,2.335148577685895,1,1,15.609137921617299
118,118,4.076676276020647,0.0,1,N/A,9.085677090078212
119,119,0.521045176639009,8.850868004611907,1,1,18.582381794366462
120,120,1.1560681443622722,7.85245380214707,1,1,18.516146062412012
121,121,8.651028866306353,0.0,1,N/A,16.13027348227645
122,122,8.50307145591321,1.513674849904968,1,1,14.066486189194894
123,123,5.965392109168311,5.125851401134196,1,1,19.291214243964838
124,124,8.150700178721168,2.6678145747427306,1,1,11.101745000878736
125,125,0.46221334779309786,8.329693762847416,1,1,15.626081164985482
126,126,9.832859029146544,6.885083315578814,1,1,22.49084566941366
127,127,8.476950757766652,7.301425030159031,1,1,17.165619771533425
128,128,9.466841453885282,8.40687480028725,1,1,18.044642779411596
129,129,4.508874172878276,0.5409663290691602,1,1,8.148229744230555
130,130,3.431926012794456,9.840713794795198,1,1,22.987292709699354
131,131,0.3798061411500775,9.859753970666494,1,1,15.24098518402278
132,132,7.3346577289433,9.99748269813586,1,1,21.627093409457792
133,133,7.060699816447356,0.0,1,N/A,22.95661061934232
134,134,2.9104509115647295,5.361416448161702,1,1,17.79270674347014
135,135,7.233848964018108,9.597016557044023,1,1,23.34213658778589
136,136,7.389009926154635,9.68853656781609,1,1,21.605868760865842
137,137,1.16118357612495,4.590743170972678,1,1,12.678817509917144
138,138,8.157384093015176,0.0,1,N/A,17.117071656437123
139,139,4.000883625658607,3.375492825984944,1,1,21.073631342334156
140,140,5.978618860713447,9.922213730928407,1,1,17.45404435470327
141,141,6.565134349976885,8.816344296051886,1,1,19.833143788098702
142,142,4.375706382490048,8.494570052788973,1,1,14.580861630755148
143,143,8.921627581352041,8.15869191828049,1,1,18.706625911021295
144,144,4.067523588862962,2.9140028158829234,1,1,15.573287262659445
145,145,6.859560253350361,1.2090866292353308,1,1,14.806730659009503
146,146,2.4028695619675777,7.853079774549078,1,1,23.91544077358006
147,147,4.62896369401027,0.0,1,N/A,20.717928579176593
148,148,1.4632696978822002,0.0,1,N/A,12.269602240149599
149,149,3.185777194899874,2.2828672285701934,1,1,20.972267725856792
150,150,3.8013765916191433,9.212817149401612,1,1,15.01490301830239
151,151,1.7321069194732397,1.5253814739976557,1,1,23.645381502759207
152,152,8.812475117527796,0.77535141397161,1,1,20.50391521456924
153,153,4.1544357496663675,0.5521527360575385,1,1,20.921251932116967
154,154,3.709000754790057,4.349485587273458,1,1,19.557683235921495
155,155,1.8225629970684987,2.197483972816779,1,1,6.054467402541352
156,156,9.400629468514005,0.0,1,N/A,20.135199693840477
157,157,4.051288370402401,9.2160480800997,1,1,15.56239282761948
158,158,4.315574098032844,7.001903724412127,1,1,16.2272957594912
159,159,7.795241547072279,1.6546445522839925,1,1,11.083928078395703
160,160,3.776039039803875,5.785877128724259,1,1,10.62521723022926
161,161,3.511530915397787,1.3164902999487027,1,1,20.72456077970517
162,162,1.3001888124324668,0.0,1,N/A,23.902889874216534
163,163,9.888324818178717,4.486766413189408,1,1,17.596902356867805
164,164,3.557029711909717,0.0,1,N/A,17.785132383712767
165,165,8.684549534357375,0.0,1,N/A,22.721767246277082
166,166,0.6391078370103598,9.704324946874733,1,1,15.363837022266154
167,167,6.753592018981623,3.758575955702389,1,1,21.68194016235875
168,168,9.835350721739202,4.0833899075429505,1,1,15.40487253722627
169,169,1.6217493909190606,2.6269115866010773,1,1,10.547666073082224
170,170,2.052332902178653,4.887556423077335,1,1,15.52941563228737
171,171,8.80541581311747,7.780021536575524,1,1,17.4668796303036
172,172,3.3605181237705084,0.0,1,N/A,22.026572253755788
173,173,9.241217811920801,0.0,1,N/A,14.306903825772755
174,174,5.991954992242714,8.115610271570205,1,1,18.52173932122176
175,175,3.5856131008134886,0.0,1,N/A,23.886128293843043
176,176,8.681922557544159,0.0,1,N/A,18.14189648389922
177,177,7.8951845153869105,8.174146502847808,1,1,23.91188019648852
178,178,5.469640801856366,0.3666008352049088,1,1,17.74752024615424
179,179,7.755779373069316,4.5627351719815445,1,1,16.49100520558096
180,180,4.27357488393315,8.260208340901155,1,1,18.11698916150478
181,181,7.219999507885692,0.20109359081011302,1,1,16.866672417638483
182,182,4.015661721581325,1.35628692436628,1,1,9.49693451954144
183,183,2.1420131900906125,1.265512533204728,1,1,14.226450898868322
184,184,5.681476266372634,7.3210275479826485,1,1,16.087172978661556
185,185,9.58646183529707,9.32734421461315,1,1,23.6445284299636
186,186,3.099462173192886,0.07395074690274672,1,1,19.999795584945737
187,187,0.07396098896948478,6.265423172994345,1,1,8.05919474490101
188,188,2.947677650086844,0.0,1,N/A,15.944748422093452
189,189,1.7998994454398254,0.5767947250702066,1,1,5.744378408473167
190,190,0.05673287681741024,8.970452232419495,1,1,16.88331198515322
191,191,6.462619501890673,4.003524137052866,1,1,20.26116392847891
192,192,6.0105116862786,3.6833200017580427,1,1,12.85840218710091
193,193,1.6618309645204588,1.2897624783024186,1,1,21.415685250132466
194,194,2.7851472740301517,8.557500779400062,1,1,18.975369179861634
195,195,4.478995921835755,0.0,1,N/A,10.86201506609467
196,196,7.827602397761951,5.14396936767902,1,1,21.97023012545366
197,197,2.011126518113693,1.581964528092299,1,1,18.92147180248437
198,198,3.311880457562044,6.597319362420162,1,1,10.834199721421317
199,199,9.509628410673523,2.313704489083629,1,1,19.984457233341328
200,200,3.2082076266924267,0.5787308573927386,1,1,12.822905191902397
201,201,1.8933812233537206,0.7456109164696678,1,1,4.776688424252651
202,202,0.8782779729310064,3.8352106808921747,1,1,6.899219404981024
203,203,9.831147196179609,5.5667026032360925,1,1,20.78538994458961
204,204,7.314282543985583,8.525198788575377,1,1,22.88434168656922
205,205,5.896743147098187,8.70612289328711,1,1,15.435813453122847
206,206,4.689721523599397,5.305772213808206,1,1,12.734723117149937
207,207,3.252097944459109,6.764220901708649,1,1,14.5621975567047
208,208,7.096679583412973,4.005387819716182,1,1,13.083924107781431
209,209,8.550106024330248,6.348583171220405,1,1,15.644847762621518
210,210,8.023578821384604,4.795843536202094,1,1,23.606422850371285
211,211,7.742241230602844,7.71622793128996,1,1,17.471026028362047
212,212,6.792105023108551,0.0,1,N/A,21.449528882966604
213,213,3.530928898137126,0.9182092134540365,1,1,4.4508760889045265
214,214,2.270427345351911,9.63235432877232,1,1,23.68592887829672
215,215,1.8612703243744588,0.1663888038532746,1,1,5.141636902033518
216,216,4.949747673393519,8.267351127847697,1,1,13.362552363587552
217,217,8.043464199946488,5.68615965175196,1,1,23.653096603085828
218,218,3.8306463097846555,3.598757465276642,1,1,23.855664081209348
219,219,1.9871073157870212,0.0,1,N/A,8.46822906633367
220,220,4.523122418181357,7.981704564576252,1,1,15.329400366905773
221,221,6.7911391271062325,0.0,1,N/A,23.170984323183152
222,222,8.27469096115517,7.377611085461019,1,1,19.868641563325447
223,223,7.607908928285431,0.0,1,N/A,16.459779265807857
224,224,9.879884053517285,6.242046863247305,1,1,20.638233026246663
225,225,5.65349379529967,0.38363992525060286,1,1,16.958093404470134
226,226,5.618289084644628,7.3446019301098096,1,1,19.459701635244933
227,227,9.76432785005459,0.0,1,N/A,14.891591218418322
228,228,2.787476420840952,9.124422616150126,1,1,23.633967620919712
229,229,4.281734681218446,5.203656595458096,1,1,17.88951781823033
230,230,1.0051119140216858,9.113484509453059,1,1,14.683803436946981
231,231,7.184221681024381,1.8103183068267859,1,1,15.358069150156405
232,232,8.498175407361117,6.935846898689524,1,1,19.98936865031181
233,233,0.9138839733269233,9.605555029399076,1,1,22.601417810754683
234,234,8.021515567413152,7.80995689152425,1,1,18.21807842199529
235,235,7.014989585424728,2.079124549440526,1,1,19.907328216791477
236,236,0.9500081119993464,9.735805705174354,1,1,12.62297258766705
237,237,8.028913726384953,8.836204704350493,1,1,19.465920109318716
238,238,1.5503060566244242,9.085510415390871,1,1,12.375739879541939
239,239,3.9764634099566187,5.79481061123866,1,1,17.873544617654247
240,240,5.946828410046301,0.0,1,N/A,14.90884495051159
241,241,2.332582714130862,3.792364036684414,1,1,16.744131019332485
242,242,1.0147432313745752,6.794516166909553,1,1,15.275482418391856
243,243,9.25001506182387,2.8201330381167966,1,1,23.325825674876793
244,244,7.758997484557265,4.779212912259839,1,1,14.341946568614867
245,245,4.500234093947623,0.0,1,N/A,23.747351716470934
246,246,6.475364882144362,2.2179657942495714,1,1,17.896186070464974
247,247,7.641713094911261,8.940841692817948,1,1,22.182154805532512
248,248,9.694828731681342,2.66607476050246,1,1,12.74306798368549
249,249,7.135556385184546,9.16751018735985,1,1,21.72317486351325
250,250,9.950561652331809,6.444815397015075,1,1,17.14606458413565
251,251,2.3747471094991326,1.150067226402417,1,1,15.116178320459943
252,252,8.405748106463628,0.5470476523833812,1,1,15.335590929873984
253,253,9.25720124209681,0.0,1,N/A,13.651495221178077
254,254,5.759703062394003,0.0,1,N/A,13.296734517599376
255,255,5.3467075615854185,0.1377088347896438,1,1,22.215135002643343
256,256,6.700284169666942,9.972025581395215,1,1,20.882971438516797
257,257,1.215741289293868,3.314115553485155,1,1,18.747181906466786
258,258,3.395492214257877,2.6225055652542526,1,1,11.113206451879815
259,259,7.0624079083146984,9.03061368104186,1,1,17.53690104247116
260,260,9.401837286672,9.507410743902984,1,1,23.40429995048969
261,261,9.82948371566344,6.635690659741586,1,1,17.116387215856072
262,262,5.596631357662593,4.397380141371393,1,1,21.945474640660244
263,263,5.821729565507915,0.9388402248305283,1,1,9.205526630937939
264,264,5.455679784626643,1.9668719152321834,1,1,14.87456153340554
265,265,3.9308327656573008,6.243311203991722,1,1,14.02783640025223
266,266,7.825955384276011,2.598300447823685,1,1,17.112683683073563
267,267,8.444829451019627,0.0,1,N/A,19.89500020170508
268,268,2.0695197886203207,5.873198890083867,1,1,23.880601989268136
269,269,7.289216711770145,9.512385033464861,1,1,21.29973455904521
270,270,6.0765881293254465,9.865998556402007,1,1,19.781164694815356
271,271,8.610737590269236,0.0,1,N/A,19.184404453169428
272,272,8.131519378641022,7.45920770944755,1,1,23.900322486432543
273,273,1.5148418702547373,5.54211897668859,1,1,7.195758211598114
274,274,3.3124270336199455,9.057982183127795,1,1,22.473904592496222
275,275,3.942065586586464,6.295568652259247,1,1,15.225443507169945
276,276,8.709085601527725,9.54292257511373,1,1,20.73111102094641
277,277,9.085831165806663,0.445365066796678,1,1,15.301324336012192
278,278,8.028483423062253,0.0,1,N/A,21.383553968756196
279,279,1.7480708027708969,5.733165890992669,1,1,12.09608069667767
280,280,8.640983637231432,1.8081346156036182,1,1,17.962428381253275
281,281,0.1121185750071485,0.0,1,N/A,23.08268732745497
282,282,8.049662472701606,9.738937859127063,1,1,19.111585231008338
283,283,6.186251704426268,7.093321347124094,1,1,23.461005611678672
284,284,2.322881861402555,0.0,1,N/A,16.993077282421126
285,285,4.599200498352316,7.726493140114394,1,1,20.02221643524218
286,286,2.9820193384076776,0.0,1,N/A,4.287229107838395
287,287,7.329224970621646,2.5960322537726324,1,1,15.116717962303301
288,288,0.5757911557791828,8.123252412289883,1,1,11.963062342065449
289,289,0.7935663587525887,4.767130790420326,1,1,7.190330345018296
290,290,3.2553332300640134,8.177562635014393,1,1,17.25935744871603
291,291,9.345915116210682,6.597112516458637,1,1,18.96270063326056
292,292,1.584537697302435,1.8746801501737376,1,1,12.963695458931003
293,293,3.082977290533969,3.193690861812395,1,1,9.325455448120435
294,294,9.865867047059092,4.6786343703660656,1,1,17.843226311975016
295,295,5.518498805447672,2.6379017770169586,1,1,18.567557645559525
296,296,4.323740361814121,0.0,1,N/A,14.50523909598133
297,297,4.910538544214239,3.455256125203544,1,1,23.54459821832355
298,298,3.5708261349193524,4.485707302015815,1,1,9.013919317939438
299,299,0.2000211605797464,6.224377340864251,1,1,10.253149068153496
300,300,1.6353734972261524,1.6688275815606246,1,1,19.846998285559273
301,301,9.66561490261393,7.361646899367013,1,1,22.942522952856756
302,302,9.10351575144501,0.0,1,N/A,17.958739409730764
303,303,4.631390890295712,7.6436350661548875,1,1,16.384953559263483
304,304,2.8895488522037773,6.011126222360233,1,1,20.02293132593747
305,305,5.140894873336078,6.729974674133411,1,1,18.48309659975888
306,306,3.195631977663335,0.0,1,N/A,14.993347605052474
307,307,9.020005645277415,0.5382784473564983,1,1,22.26419592958687
308,308,5.249263228278816,1.2748948416332728,1,1,6.962008158427357
309,309,5.553268505842243,1.7016240140946248,1,1,9.280262340935653
310,310,6.742633026564801,0.0,1,N/A,15.56236826517663
