,Job ID,Stage-1 Processing Time,Stage-2 Processing Time,Stage-1 Machines,Stage-2 Machines,Due Time
1,1,2.8137183906746186,5.798102489377146,1,1,9.054877426858157
2,2,2.7149662171384206,1.8909778220641826,1,1,6.5502650443823125
3,3,9.20797420917139,3.405247950016287,1,1,18.102600254915238
4,4,1.008688757288726,7.572073071504429,1,1,16.304559172825158
5,5,2.280718385689572,4.854883813360439,1,1,21.066797600478132
6,6,9.55169629517194,2.454863041524271,1,1,23.985075357193445
7,7,6.340029397875943,4.719323829480359,1,1,13.311259295095487
8,8,3.2038457777796605,8.888469401081856,1,1,21.860906960923877
9,9,4.495703803448889,1.492956785201971,1,1,13.995870783280436
10,10,5.974170945727014,6.564928168203124,1,1,13.098601885824545
11,11,3.7316678791927513,5.93691708599226,1,1,21.98208353589513
12,12,9.27225127853994,4.322872596068047,1,1,16.80867911386948
13,13,2.072329693385834,9.42301448286188,1,1,21.255659073873126
14,14,8.29268956922434,0.06772695098761328,1,1,13.555190397117533
15,15,4.738474159185672,7.256354931873318,1,1,20.797711846913508
16,16,3.7859531054682236,2.341971756311044,1,1,19.63242104818184
17,17,0.5600556315506222,3.8931990592167054,1,1,11.935403054591124
18,18,9.36730539316301,7.863505133860915,1,1,21.515858369739405
19,19,1.695667451252515,2.821721770233707,1,1,13.418848559004818
20,20,7.757155823000122,4.504644511301963,1,1,13.624818981851057
21,21,3.7628965850135865,7.898016702056006,1,1,12.36347305186045
22,22,7.797534499082283,7.285750726037342,1,1,15.84687125497123
23,23,7.874544292624087,8.427114539096014,1,1,21.611618089537068
24,24,1.3085943580791504,0.0,1,N/A,21.004368890323192
25,25,3.4144357211832355,8.310124890550485,1,1,21.13600364977637
26,26,7.806606402442002,2.4570713948170275,1,1,12.384647058338313
27,27,9.236690509832803,3.8210929236117988,1,1,14.573725788496164
28,28,8.28849869738264,0.494262579243262,1,1,22.875269437200743
29,29,2.255571198087196,0.0,1,N/A,8.80943161865887
30,30,3.6513144969282454,8.853361256212986,1,1,14.625620698895554
31,31,2.9582104810888863,1.0745505507689457,1,1,6.474423125374803
32,32,0.9483062677409138,1.0270861268651876,1,1,6.734543643957252
33,33,5.078564143262669,0.0,1,N/A,12.434811838961092
34,34,8.146601743898266,7.304418460959452,1,1,21.706794010748258
35,35,6.99392718578266,6.20298224218627,1,1,19.6026944796807
36,36,8.74362707087437,2.0983877576768672,1,1,18.772441594942297
37,37,1.9089733881237636,6.702745279484078,1,1,11.200124138153988
38,38,1.718702146503397,7.620621104965096,1,1,17.649044712942946
39,39,8.00322685884628,0.7123048517462471,1,1,17.04689611021559
40,40,5.125363118689169,9.07125395592847,1,1,15.355515365379848
41,41,6.049784758684869,0.0,1,N/A,16.653160244248106
42,42,5.785332428518105,1.6412999562882002,1,1,11.700347239608432
43,43,4.16124976962068,6.6696391318793165,1,1,17.946746895330847
44,44,8.163250423485088,7.245907902325124,1,1,22.67927835778507
45,45,7.324562046945859,1.072300247464102,1,1,20.930679338378475
46,46,7.295231183303894,8.654067598056594,1,1,16.426380429439877
47,47,4.84167132534931,0.0,1,N/A,23.122266339141337
48,48,6.795020908210821,3.8067254803600106,1,1,11.227553349557347
49,49,6.19025797651847,5.772820260408464,1,1,19.430151260928167
50,50,3.9834299751290434,1.589557305800734,1,1,7.175085019109764
51,51,8.255305338766961,1.1998516161758477,1,1,13.813091260558895
52,52,3.4261239946408395,0.0,1,N/A,11.194410863653465
53,53,4.698161982561747,0.0,1,N/A,20.02638973124467
54,54,8.946397244116204,0.8833322348661865,1,1,22.888474176713473
55,55,1.9772105928924733,4.059274097355527,1,1,8.47927619067777
56,56,7.342959268635749,1.8662477689202117,1,1,19.67497041478107
57,57,1.4196070233143698,6.565129114493466,1,1,20.159922989508672
58,58,4.566330832977195,0.0004573891824410925,1,1,17.50431992291304
59,59,9.883857687391815,9.433202501282834,1,1,22.788583549631518
60,60,6.748400213669864,8.75015177121149,1,1,22.193650006443573
61,61,9.396778965217859,2.810413971257737,1,1,15.694255673331531
62,62,1.6565638411130745,0.09030071212711155,1,1,15.642481667795591
63,63,3.332232843720778,8.514741187253009,1,1,16.03245256384126
64,64,9.220432148644473,1.8489041440564635,1,1,12.58333724176166
65,65,2.7479182907582667,9.259091452610008,1,1,13.02554145214036
66,66,5.444242091234194,0.0,1,N/A,22.432134013346698
67,67,4.694485406417662,0.16118304512245385,1,1,18.743755660958186
68,68,2.2496865608731986,4.309355359658801,1,1,20.845031626692553
69,69,5.309232192210053,3.698451070286841,1,1,10.693133615332759
70,70,6.2091703883188165,6.27473770582876,1,1,14.237266937288473
71,71,6.527692887200807,9.14429545668196,1,1,22.91741498355165
72,72,5.415213897446172,7.025321910966089,1,1,19.40363672100299
73,73,7.665923557967029,0.0,1,N/A,13.738639820075377
74,74,2.1147395068977746,0.0,1,N/A,21.235951357212826
75,75,5.8704047314523,0.0,1,N/A,21.907938799671278
76,76,2.1389035444593563,1.4810395024183942,1,1,6.721540110906348
77,77,4.406943300572989,1.948266804196156,1,1,10.42653890727758
78,78,7.35815541050728,9.716943691834597,1,1,22.01965676950712
79,79,3.4168700918602624,1.7590666209959338,1,1,18.267452866511523
80,80,2.1131089016164473,3.353320540869235,1,1,7.9461206083118725
81,81,4.609977200383452,4.204471242801966,1,1,10.926913997566002
82,82,9.388468093781118,8.292127583673345,1,1,22.685118571365066
83,83,7.015133562681999,5.846710714792711,1,1,16.22601893182965
84,84,0.408175595946354,3.1469269302618175,1,1,5.202810941574333
85,85,7.092280355984258,1.3185299504782166,1,1,9.477196150406865
86,86,4.4000406997189225,0.8916379607917213,1,1,7.16925239564512
87,87,8.651425293891563,3.142419394581213,1,1,18.362082744254742
88,88,3.4183235800524137,0.0,1,N/A,16.820037086788233
89,89,1.6970003483585416,0.1334958333869951,1,1,10.309158339062757
90,90,0.02722231227823224,2.275240185847008,1,1,3.6245656310384007
91,91,1.1540566208878378,2.935980370998974,1,1,8.588268064407842
92,92,5.425365367579493,4.274498716740266,1,1,12.9216579525301
93,93,7.50716076820399,0.0,1,N/A,21.29954652534487
94,94,4.869852400058984,1.2467025313435998,1,1,20.05041949597095
95,95,5.751463791950668,2.9226408707091753,1,1,13.94717877479621
96,96,4.6442223566121354,0.0,1,N/A,21.505691147311676
97,97,2.509788202184481,6.740281441162534,1,1,13.330693010770704
98,98,2.9448860160561905,9.116519229880996,1,1,13.072583411702134
99,99,1.9860912474286219,8.574272100825532,1,1,21.26732392515852
100,100,8.539894850579122,5.769540055526905,1,1,17.161505614844234
101,101,3.857051127610781,4.512058394203842,1,1,13.712244407650301
102,102,2.1885307188585568,9.54204039123834,1,1,15.526648505909407
103,103,3.924482783531835,2.4535471584120905,1,1,14.990186914673176
104,104,6.638526627721955,9.525939918346431,1,1,23.78097162118312
105,105,1.0086846368600655,6.876106823260617,1,1,16.404939293427113
106,106,5.666640417747365,1.610966932411707,1,1,13.675158547096963
107,107,9.942624287354043,6.296336290059948,1,1,17.9136447863145
108,108,6.0834172626570755,3.0079780027327896,1,1,16.152458317868298
109,109,1.4484370095388943,0.0,1,N/A,12.545255268490518
110,110,9.130616114368914,7.4594899518328,1,1,20.2126613295632
111,111,4.35911955770366,0.0,1,N/A,23.384581537142694
112,112,4.76131443198875,0.0,1,N/A,18.85166039154418
113,113,8.432489629640003,0.0,1,N/A,19.537056777729898
114,114,3.6936622287212395,4.177817330088736,1,1,16.983281859600822
115,115,2.5467867606729913,5.106874744754849,1,1,15.339135266473768
116,116,3.6335807240574267,9.002897434531743,1,1,20.919781832710207
117,117,1.905058460847976,6.542083706445761,1,1,21.295591068763123
118,118,3.100278323020591,8.924653492747613,1,1,21.952153770292398
119,119,6.781613245738631,1.4018101143562156,1,1,18.61255074708891
120,120,2.5832968786446333,1.5529605376593525,1,1,15.949762208084833
121,121,1.5615868528091537,4.233488615323289,1,1,17.653653767030583
122,122,8.00855335018473,9.535035628551096,1,1,23.52600127279456
123,123,1.3875303272051431,4.725965199955614,1,1,20.555730112635878
124,124,8.753456756881814,0.0,1,N/A,17.878118484740057
125,125,4.45977760093492,9.12418653928444,1,1,23.68699622400748
126,126,0.2198845100818081,2.594636352443037,1,1,18.852843390459917
127,127,5.559930602993964,1.323600314048039,1,1,22.470871556798443
128,128,5.56488351683866,8.063777498801732,1,1,19.786841340598585
129,129,0.19940363848278686,8.331935133327876,1,1,19.953668827925057
130,130,2.3970079016548973,6.521528004752693,1,1,19.291895512998543
131,131,4.739931721099201,4.804329403528537,1,1,19.028828485903116
132,132,2.360869148718323,9.314481089041953,1,1,19.27851150949242
133,133,8.93753424418446,7.105999701936087,1,1,16.298250033568632
134,134,7.0093077491145035,0.0,1,N/A,19.93174650555077
135,135,0.034852728503238506,4.632208603180378,1,1,23.590154184319537
136,136,5.607230102550416,0.0,1,N/A,22.515495688163437
137,137,0.11396048942325931,1.241409318312946,1,1,9.171746309904373
138,138,0.8760913221553546,0.07143450194578183,1,1,8.025432056440446
139,139,9.311984622332034,3.54478117572035,1,1,18.297256603979193
140,140,7.660473530253588,7.197145468553133,1,1,19.943708761445993
141,141,1.8092774320462945,0.0,1,N/A,15.47365540485548
142,142,7.462117299615848,6.3440600798227305,1,1,19.538061873180627
143,143,6.755225450709789,6.331970013198745,1,1,17.826966077210212
144,144,9.497499826048134,2.4798077747042346,1,1,12.69960463268365
145,145,6.777351231430282,0.4829258910733736,1,1,19.345676053847633
146,146,2.060296808380847,8.437822574473167,1,1,22.960199539301676
147,147,2.116030935263212,4.1477146550737265,1,1,16.390323195807415
148,148,7.419898561349484,3.6080361702635866,1,1,12.681357897152314
149,149,3.8066068728655233,1.8167122032032013,1,1,10.808328001929514
150,150,6.238932095071789,4.391708624250654,1,1,21.325255679054578
151,151,3.5728824571576334,7.373309118810486,1,1,14.28196792199328
152,152,2.2309972903158393,2.9727662597753057,1,1,10.123182060583067
153,153,9.272308807335227,6.036378067917653,1,1,23.426933749629622
154,154,8.18495193189824,4.346212833931107,1,1,16.671452296627614
155,155,3.465512483177827,4.598506518895485,1,1,21.434645089964576
156,156,9.336836300849203,0.18478587244116662,1,1,14.927128273650453
157,157,4.221913242811661,1.5603920014548256,1,1,15.252216469915888
158,158,3.496958657505634,5.025165057647806,1,1,10.332886875872326
159,159,1.7568868226247625,9.566447202872608,1,1,22.883920168852292
160,160,5.436064892272001,0.0,1,N/A,19.707654538513086
161,161,7.380410904226208,0.7676449839937582,1,1,21.45433752931685
162,162,4.436074765157896,1.945690736520963,1,1,21.928572152902774
163,163,3.562595166167294,6.830872677917817,1,1,13.826822852198593
164,164,3.1496303738798503,0.0,1,N/A,21.006997183898843
165,165,4.9860936382925605,4.001887501870666,1,1,23.482644926910865
166,166,9.706903155923749,4.106799212232217,1,1,18.541652401754252
167,167,8.90397611279145,0.1864287959484623,1,1,22.810005000893412
168,168,5.785766377864622,1.4333085294858672,1,1,17.086534351781296
169,169,8.630373881793055,2.8987492173654825,1,1,14.927165618550362
170,170,0.7563052089342936,7.135449778227021,1,1,14.60828897866918
171,171,0.4581438254765635,5.656558588480501,1,1,6.273926030561952
172,172,1.7903778688388583,0.0,1,N/A,22.15716811607187
173,173,7.8560398066085755,7.700986418966549,1,1,18.44834808205397
174,174,5.131699048020844,9.478785239983141,1,1,21.49233925750088
175,175,8.371507407582268,4.630127534174726,1,1,14.774712622261482
176,176,9.868958811335588,8.859133625799233,1,1,19.248697742949822
177,177,4.783755144995579,7.146003976124959,1,1,14.753974018212386
178,178,0.1486147872087773,3.314401020868046,1,1,13.127012903060116
179,179,2.8420093339619577,6.581567780848825,1,1,14.760930390827657
180,180,9.897172118631078,6.980392024485813,1,1,19.048657480995963
181,181,4.378771035085224,0.0,1,N/A,19.92842690682575
182,182,0.6053775095780356,5.027611106252924,1,1,21.711039447976766
183,183,7.457916500786748,7.095501123825151,1,1,16.44805039033365
184,184,4.661767625124242,0.0,1,N/A,16.575335753702173
185,185,1.6341422197871647,4.952112611266427,1,1,21.43448892392088
186,186,4.679459005599172,8.559040455771596,1,1,14.12126024271896
187,187,3.237847597004173,3.1244007556634323,1,1,12.889943539281333
188,188,5.097729557368439,0.0,1,N/A,15.514163130274227
189,189,3.948205116127097,0.0,1,N/A,21.66188890219246
190,190,1.8581449612525114,9.57054958933728,1,1,15.016877367285314
191,191,5.692804591418001,3.97169234333415,1,1,11.319844838577596
192,192,8.237025666065437,6.5074836421457825,1,1,20.609944876479336
193,193,5.022962880672256,1.9094803338990574,1,1,15.943164713730447
194,194,4.261041611607366,0.0,1,N/A,22.256358671905282
195,195,9.464142882249122,0.0,1,N/A,10.76638505305735
196,196,0.2899368558465587,0.0,1,N/A,7.389406902762063
197,197,1.8313855151419267,5.929945711620831,1,1,12.295600576329733
198,198,8.98789159035483,0.0,1,N/A,14.770010375070452
199,199,6.671537563530002,0.0,1,N/A,23.351068054647918
200,200,9.158781836315898,3.0232581021241,1,1,13.243989637645072
201,201,6.697643425285365,0.0,1,N/A,18.263669842331026
202,202,1.623671069763154,0.0,1,N/A,18.758993721592372
203,203,4.4614307663152175,7.9008656555653225,1,1,23.91409634505108
204,204,3.694526633833146,1.9621627650465934,1,1,22.99825211964678
205,205,3.5885782603133585,0.3534041804991661,1,1,14.54935656712323
206,206,7.947519979479374,5.755967423215472,1,1,14.69947680647647
207,207,0.19162133728518493,0.25340585613856215,1,1,12.849743937956188
208,208,9.826533045243576,8.623265161587057,1,1,21.800336221493314
209,209,7.93914745694741,1.2129160287669416,1,1,22.241501742196643
210,210,9.547070544447669,7.720092500963415,1,1,23.324941515575766
211,211,3.898677632723463,7.003692182936624,1,1,13.042065761408743
212,212,9.527557872993345,2.545132770937596,1,1,18.348281554691994
213,213,7.932031486662023,9.917016526630633,1,1,18.594384490072844
214,214,6.889796215819416,0.0,1,N/A,16.856303407384953
215,215,7.798578727795277,1.8982810103829895,1,1,16.996186633508
216,216,4.637867496036948,7.883100088439621,1,1,14.288288583918717
217,217,3.576874112221813,3.5846140293444573,1,1,8.854472403441106
218,218,8.880927342463698,0.0,1,N/A,23.019426373776735
219,219,2.48980710870386,1.537974715028333,1,1,14.455252975845369
220,220,6.062211744797773,9.755588998361285,1,1,16.002928012387056
221,221,7.4559538523307705,0.0,1,N/A,19.787370230313595
222,222,7.677273809750713,0.6989459556073396,1,1,14.301859852479023
223,223,9.334371948348517,9.946133852331577,1,1,19.61668159967639
224,224,8.299456907257488,4.561060085969405,1,1,18.061892130314007
225,225,7.838710195144945,0.0050216519650714275,1,1,17.503741849070305
226,226,1.7670401734376284,6.217147677540896,1,1,20.719114980962278
227,227,6.4486207551195935,6.830553820005806,1,1,13.696977297543514
228,228,8.752410012444363,6.913566162303906,1,1,21.06949256336648
229,229,0.7643474137216055,3.289593051766108,1,1,21.692407437835644
230,230,8.621214445232361,3.3134555784315776,1,1,22.7036725927846
231,231,5.628140607395794,9.133327397618348,1,1,18.575185294335856
232,232,5.611729040368108,7.06626738448707,1,1,20.542624548835747
233,233,1.249873366651607,7.146554640397654,1,1,16.235375509694265
234,234,4.883493194442384,4.850749807580051,1,1,17.009887358624297
235,235,5.746781280426676,4.399653417671195,1,1,10.933648330016675
236,236,1.3708939911736928,4.106670671629504,1,1,16.173144433080996
237,237,0.4285461619494013,3.3237025763787797,1,1,21.12784498871359
238,238,3.3225286276227783,0.19480530237141025,1,1,10.308707192202835
239,239,9.66416920868851,0.05995079374697232,1,1,15.362584774121462
240,240,9.87158184770739,8.217677976201319,1,1,20.36096720574123
241,241,6.201334749666994,0.614993473682911,1,1,7.101376884592964
242,242,6.144169247456023,9.261510179128415,1,1,17.381717809753283
243,243,1.9125555567943553,1.425655253099476,1,1,22.046366753262
244,244,9.95302586339342,5.613911199509278,1,1,16.690438409053368
245,245,4.1866940832821955,0.0,1,N/A,17.956498364285487
246,246,4.841933742284872,0.0,1,N/A,21.576138775840196
247,247,0.2908315403687023,7.947107644515265,1,1,22.066268812484367
248,248,8.600543927301675,5.437926299794121,1,1,15.801212118427639
249,249,5.220765017768092,9.010455535067766,1,1,17.463740422472895
250,250,4.150177513127873,1.16189655267821,1,1,12.55304466015087
251,251,6.5937469099796555,4.66711785060037,1,1,23.440418950672843
252,252,1.971803597401034,9.405045691638724,1,1,17.077917075178497
253,253,2.192635866691387,2.693676177995176,1,1,11.061536246554159
254,254,7.880874765879435,4.705898842951831,1,1,17.259559899554496
255,255,8.954953273305527,0.2975761636820151,1,1,13.194753699514365
256,256,6.980509691562266,8.492305279735167,1,1,18.965447561271912
257,257,7.317817731928425,5.682672460281886,1,1,13.493284734438769
258,258,0.6673093775114669,0.6602993224366249,1,1,7.115087495332703
259,259,9.685685594121352,4.049361907196082,1,1,17.00312679530257
260,260,0.8007912401544914,6.875474526646897,1,1,11.943869833217615
261,261,4.483521653499691,0.0,1,N/A,18.53839736626538
262,262,8.374370047120568,1.1498755203858857,1,1,18.9079335549213
263,263,2.830142253210881,6.797948074492147,1,1,19.80967948690155
264,264,7.843558672105989,0.49750498125863407,1,1,13.635857549629758
265,265,1.7059550366812182,0.0,1,N/A,7.749082120412006
266,266,8.718150635524346,0.7159349891982847,1,1,17.773035399710082
267,267,1.716538441241725,0.0,1,N/A,17.73884431698496
268,268,8.068974779557484,4.676887872389464,1,1,17.493341818393493
269,269,4.681585993034643,3.8024663728869745,1,1,19.16766510513868
270,270,7.372189987260541,4.623275784726937,1,1,22.45353516455183
271,271,5.250460654311741,0.2273438745890588,1,1,17.390696991519107
272,272,4.911340336319201,6.594709045153645,1,1,15.345637506583305
273,273,7.204569954035885,9.612973507480188,1,1,23.570946911487532
274,274,8.898352674410432,4.771595117405802,1,1,14.99906869666409
275,275,1.5883736359430256,4.998437425004166,1,1,18.453071641982376
276,276,8.968149346956572,3.5206606989288325,1,1,19.553877959121017
277,277,9.773892150301434,9.48699047101866,1,1,19.920315900419187
278,278,0.1116716758108438,0.0,1,N/A,3.3472014820311733
279,279,6.74292655681055,0.0,1,N/A,19.824971325393182
280,280,2.382943365075745,7.726187286306984,1,1,15.312600769123257
281,281,9.22491756331895,8.20923413959895,1,1,22.441539155201433
282,282,8.13204140579482,0.0,1,N/A,15.01092639015618
283,283,5.054715837019408,9.363684677940586,1,1,18.03829930116146
284,284,5.282129791393975,0.18958381146355285,1,1,7.677832443829252
285,285,1.754275517999293,7.977873722466812,1,1,21.766353867282483
286,286,7.1316435760261765,9.270688757962176,1,1,17.169037811304634
287,287,9.156524541139477,8.283716358701161,1,1,21.073118133313297
288,288,0.9302756355841002,4.048207749703129,1,1,12.845151502062127
289,289,2.5758044219324305,1.8190037278324378,1,1,5.9663508636152
290,290,4.014464781670148,1.4682894172830363,1,1,19.629787830865787
291,291,8.27480691712279,4.02003620714477,1,1,12.329873464052078
292,292,4.235781341394093,2.948202599945402,1,1,15.655742661689375
293,293,5.711820990822609,7.56803978331657,1,1,17.875585933721595
294,294,1.3122984856282505,4.770467625571419,1,1,19.631153924898737
295,295,2.218681790536051,8.360065979497943,1,1,16.295892451060176
296,296,1.748314866756152,6.854025647318314,1,1,17.47046764453524
297,297,3.2204948073190343,4.659037316483495,1,1,19.09563794735164
298,298,1.2246454097311887,8.71717605102302,1,1,16.83116721169995
299,299,0.09779936361175467,5.67371437649593,1,1,20.968119287067758
300,300,8.394544107499662,0.0,1,N/A,16.817001840274852
301,301,7.871356947894327,8.09303347906829,1,1,22.86079403153984
302,302,1.2462609528018043,0.6585507434181892,1,1,14.540311567500254
303,303,8.400527760201586,3.0627913035316334,1,1,13.022610447974941
304,304,2.6456898490003598,6.6565569375248845,1,1,17.52123636897138
305,305,7.1168048109285165,6.83886386048367,1,1,23.21768882833838
306,306,6.888284502515534,0.0,1,N/A,16.654099819855805
307,307,0.5653296909747996,0.0,1,N/A,10.734741599081522
308,308,7.229374920586892,1.3477288005234322,1,1,13.73045031891472
