,Job ID,Stage-1 Processing Time,Stage-2 Processing Time,Stage-1 Machines,Stage-2 Machines,Due Time
1,1,5.582600945798673,2.625067934860562,1,1,10.71341024147683
2,2,2.2545217542646734,4.275098590645726,1,1,12.364220996415789
3,3,8.655734311556813,1.4774224322860108,1,1,11.099696764078963
4,4,1.703894690979545,2.3728924595762124,1,1,11.869059915471759
5,5,1.1870857102501264,5.507111643481948,1,1,10.135840474963306
6,6,4.042427469487428,1.5110758622563347,1,1,20.003741060685286
7,7,2.927021266602198,6.606140698294531,1,1,23.436669646477668
8,8,6.688595116900784,7.886302625618863,1,1,16.15696834930981
9,9,9.325144201159063,0.0,1,N/A,22.756268238066138
10,10,2.701574923591118,1.9955224514167602,1,1,11.977781230876195
11,11,1.2614471503528346,0.0,1,N/A,17.789124216385137
12,12,0.7053395897885018,3.2425326137332586,1,1,11.4260282644594
13,13,7.360262777454025,8.118201935630498,1,1,19.5793156678761
14,14,4.040298212252375,5.758422781910218,1,1,14.94245194753006
15,15,2.8991860319250806,0.16461755928415367,1,1,8.279660797782128
16,16,8.34567354498747,3.3429223169310673,1,1,23.55853209041398
17,17,4.305759823945009,8.055394406586768,1,1,17.93026807696286
18,18,4.251041007665252,2.826301317676166,1,1,7.170757904568271
19,19,5.453306111954332,4.176662064609882,1,1,21.461757731821706
20,20,2.8422555338325353,8.024269609972613,1,1,23.42146077583118
21,21,8.754430199638891,2.7957011538102403,1,1,16.263023231356275
22,22,5.011363172109501,0.0,1,N/A,23.53644195748558
23,23,3.411994635137723,1.4066153943620296,1,1,14.914798738058053
24,24,6.977817986517426,4.615065590524869,1,1,15.554718918534906
25,25,3.240574260229768,4.109956099778474,1,1,20.86185066356693
26,26,2.8352228003184923,0.0,1,N/A,19.67579755133964
27,27,4.741842266030436,6.608381392573679,1,1,11.62242916073262
28,28,6.038456663684517,4.988335937442719,1,1,22.77737462165675
29,29,9.728485846854486,2.31159412695092,1,1,19.442963260851343
30,30,5.82526975485563,9.551660942054056,1,1,15.937464606999418
31,31,8.505552534486103,5.198202693609756,1,1,17.66551876783939
32,32,2.270026430949692,0.8812810449350172,1,1,9.288027326424597
33,33,1.6855442016661548,5.033515686706487,1,1,18.961780965827657
34,34,6.509524316772398,8.587452763647862,1,1,16.061059371217038
35,35,8.777791683700036,3.5005615299577153,1,1,22.6627794656417
36,36,3.7388465550083905,9.109014527666805,1,1,15.278114331498749
37,37,4.44144023602636,2.018298437843815,1,1,15.777228089467016
38,38,9.911890754448539,2.208015847341094,1,1,22.821669586912144
39,39,7.2549463469887066,5.083203893982472,1,1,22.214828181908384
40,40,6.713671033650213,8.515086124428212,1,1,18.95240040940469
41,41,8.027353554100241,7.855546660418127,1,1,16.505867210837657
42,42,9.588903231538563,2.7409229951010516,1,1,15.032030145439048
43,43,0.9736495329159756,7.147717313894322,1,1,13.648555247062028
44,44,2.6129302447386005,5.70120862214897,1,1,18.912874699960074
45,45,6.552581560083231,3.660972409210034,1,1,12.488701085004548
46,46,0.28990077290929395,0.6410832765333496,1,1,9.054063686012196
47,47,3.652989896302188,1.5001183444224353,1,1,12.652846999572779
48,48,7.906309187607309,2.076451920412805,1,1,22.344705565858078
49,49,2.1247108753201047,8.475169867894643,1,1,23.92188798644019
50,50,9.53006424162733,3.813423353138765,1,1,22.594337144559496
51,51,6.770835790064535,5.06979626183838,1,1,23.936929794089274
52,52,7.190362201933567,0.0,1,N/A,20.726775472909335
53,53,4.00191687216532,0.0,1,N/A,10.936684002200689
54,54,0.9672989214326533,7.71916147453701,1,1,17.17610638870177
55,55,9.216744702407407,2.870264749354333,1,1,22.240870728092446
56,56,5.126592917534712,3.5841459048716837,1,1,22.486661833692814
57,57,0.34774322246119094,9.177291380018143,1,1,21.45536064277694
58,58,0.6179983983517101,2.923276464026263,1,1,5.8137201212007215
59,59,3.716443808409744,0.0,1,N/A,18.833052680890194
60,60,0.688102302724195,3.8986357005842507,1,1,8.32673005100772
61,61,2.68615082682899,1.5564579682403146,1,1,12.464389391601197
62,62,8.124606073533869,5.188190901239772,1,1,22.8203274743177
63,63,2.615997142566192,0.0,1,N/A,9.747017277585531
64,64,1.0548802421888948,3.2306343242488653,1,1,8.200096866855294
65,65,4.64709764243315,2.756623523962828,1,1,14.481727859069293
66,66,7.534282086239914,9.85354814365699,1,1,20.699413564683006
67,67,4.9940343086485415,1.592201507361024,1,1,20.421923324630423
68,68,4.7156771354934754,3.62696566249027,1,1,13.275217490116205
69,69,3.8679726082224963,6.909832887864268,1,1,16.842748260860372
70,70,6.323225632426236,0.0,1,N/A,18.7144179125584
71,71,7.1890390475284525,0.0,1,N/A,18.251711070019475
72,72,5.244309768263527,2.782400111017531,1,1,17.007748260816605
73,73,1.1462370046088766,8.534676077461942,1,1,13.225585722023265
74,74,7.398010797566529,0.47492663183429595,1,1,22.24254575604615
75,75,8.754229759703842,0.0,1,N/A,12.84063304371882
76,76,1.1597918678390695,4.889336177925596,1,1,16.722379603851845
77,77,6.997821885627163,0.13270963008518932,1,1,7.156453373286204
78,78,9.279959770387553,7.493413393430634,1,1,18.15089752062935
79,79,0.9247566314583633,8.59231751044004,1,1,9.74154663629957
80,80,7.647852533478291,0.39763697536388753,1,1,10.777202827406171
81,81,9.866991402008852,4.737813178088478,1,1,19.38281006686245
82,82,3.911873032899109,3.1081461768405583,1,1,18.541449327142125
83,83,8.37011410503973,0.0,1,N/A,20.025914260194657
84,84,5.32204583050734,0.0,1,N/A,22.486496625237102
85,85,5.3586034060263055,2.2781286718135316,1,1,23.85185352775352
86,86,5.618614447123614,3.4886197764384286,1,1,17.23039611494845
87,87,4.786077477165783,0.0,1,N/A,23.930016166657644
88,88,0.6115102924124738,8.817324862674615,1,1,18.822860738516198
89,89,7.9341350727520545,7.236597388290887,1,1,17.92696843092271
90,90,0.45692298934679076,0.581763756493513,1,1,12.344034955963231
91,91,9.256397311177714,0.0,1,N/A,23.311237749950415
92,92,0.7773693368082146,0.0,1,N/A,15.781230045002692
93,93,2.147914327965472,3.8742417022680096,1,1,14.808653790225073
94,94,6.481185064557299,6.3870665917138965,1,1,14.348061880987052
95,95,7.17813388881264,7.660920396111649,1,1,20.22427997030014
96,96,6.218422188557055,4.074151641208915,1,1,20.09340589434477
97,97,9.298878233595133,6.758814057896475,1,1,16.477916184320463
98,98,9.967051972324741,6.502441304887068,1,1,18.299123260691708
99,99,6.220763507847692,7.5558558815107,1,1,19.208236535572002
100,100,2.514401208263246,1.0279309087806343,1,1,21.678093215065804
101,101,4.699428742031852,6.742218153146514,1,1,21.822327822913557
102,102,6.292024023864271,0.0,1,N/A,18.285927597979413
103,103,3.6630735196134623,2.447824440482669,1,1,23.22421975210428
104,104,7.512718296135264,9.151057006239142,1,1,17.548988258012198
105,105,7.1921773626988,8.10867219418859,1,1,17.88359478004064
106,106,4.816622012099665,6.829553823331494,1,1,18.53495241406269
107,107,6.00866547678423,3.0276108345226738,1,1,23.142547037808605
108,108,7.742069205149403,7.047551395688576,1,1,23.430649076526137
109,109,8.943642395843415,8.319855397033809,1,1,23.94182162481996
110,110,1.325776407692405,0.0,1,N/A,20.258848741969025
111,111,6.802656477196996,9.222877558405727,1,1,20.34043040091358
112,112,2.3680663862627327,4.382850454081528,1,1,11.222515381824696
113,113,0.869838217110317,2.8682681472220715,1,1,16.97563331330039
114,114,1.715198483473297,6.910474951185708,1,1,16.045340820642096
115,115,5.383359993883991,4.883945635726084,1,1,19.189890939899954
116,116,8.693033227777848,0.0,1,N/A,21.409380450271545
117,117,5.72292056725498,4.329460668900559,1,1,15.437496380210263
118,118,7.406741923376411,0.0,1,N/A,22.572605099519123
119,119,5.795565534308879,1.2016027987380529,1,1,19.01596666278517
120,120,2.927431389525359,4.755294520370496,1,1,8.65722824394381
121,121,4.478637672197023,6.416094190877294,1,1,20.26994607173699
122,122,4.596042051726461,0.0,1,N/A,23.021145937944155
123,123,2.420499612637129,4.5205630984294265,1,1,21.242074561478802
124,124,9.838655243547306,0.0,1,N/A,18.644864522405364
125,125,5.678019244749336,1.0695918043370012,1,1,13.473124702802235
126,126,6.150698299217511,8.484811480710965,1,1,21.381485735060572
127,127,4.2867595557136005,5.5388228293448805,1,1,11.900702924735521
128,128,8.249887827877245,0.6120137776370527,1,1,10.040482139254362
129,129,5.019935667521579,2.304284978190263,1,1,21.866852653699873
130,130,3.9779539719607806,1.9317567824448334,1,1,9.034303413021515
131,131,6.357771591274675,8.571123464950453,1,1,15.183056478406696
132,132,2.895131403133796,3.942334946945787,1,1,8.414693319081875
133,133,8.481207416390438,4.455397253505751,1,1,22.13338065784356
134,134,2.3744655982473883,9.600941801056491,1,1,19.720162713282118
135,135,6.082726721220341,2.985356834128927,1,1,19.78213079236506
136,136,4.944282492638623,2.9601762622949632,1,1,13.11566321505199
137,137,2.1823238190452967,0.0,1,N/A,13.514856191923542
138,138,4.232356247111637,9.736276153003192,1,1,14.725005312552273
139,139,5.420082023113628,0.5776482489918633,1,1,19.53190134508379
140,140,2.053818406347485,3.285448626722034,1,1,12.47588669739261
141,141,3.172951241347083,0.0,1,N/A,8.972653396717481
142,142,1.4923185136609296,0.0061329525516262695,1,1,15.480125646073384
143,143,0.9492785895904721,1.4483728159417963,1,1,10.870217505888908
144,144,8.180321345516779,3.4677665285482897,1,1,19.04728569165567
145,145,8.795411900026068,0.1131793704902262,1,1,10.412895421320501
146,146,2.2932877146921626,0.8989503839693092,1,1,17.449379833016273
147,147,8.45953850993283,9.754248656982078,1,1,22.844648842255843
148,148,3.2621418821809733,3.281269069649687,1,1,20.78498357049022
149,149,6.38868377274207,9.30678394901143,1,1,17.559182200350435
150,150,5.300159383266061,6.937415459500514,1,1,13.89266940171149
151,151,0.6830427015511664,6.114827052461401,1,1,11.002538323082408
152,152,3.763779451267897,4.490239531953007,1,1,19.023455977408986
153,153,7.210568408690598,2.433061213312928,1,1,18.831549068702664
154,154,1.4151842545101467,5.496873750568225,1,1,12.05955749307023
155,155,7.14303834982676,5.476363734947466,1,1,14.952535622439719
156,156,3.884630006924702,6.235320794654669,1,1,14.57965350588595
157,157,5.264295593713408,9.381564803113617,1,1,21.403288168422847
158,158,3.740931910735479,0.0,1,N/A,20.31515666184609
159,159,0.005012128589741982,0.0,1,N/A,22.967529103756867
160,160,9.934765229581993,3.712460529535413,1,1,19.93995099049609
161,161,6.2263521705699665,0.0,1,N/A,19.152469198603924
162,162,8.280247929160799,1.899120550673401,1,1,15.6305638029224
163,163,7.636853171390818,2.650988169990943,1,1,20.569573513743997
164,164,1.521556728475315,4.300141134384776,1,1,8.724464394869283
165,165,4.675216246264771,4.896315519144698,1,1,22.77865980584808
166,166,3.660526513972928,2.0355905635609526,1,1,14.965121743198148
167,167,5.296399211760355,7.3634290515953875,1,1,23.577966855817806
168,168,2.3948592399665856,8.399509491169274,1,1,18.786622462471335
169,169,7.128654292379165,9.505741255321094,1,1,17.871855190269343
170,170,8.251779308884334,7.017469662798136,1,1,22.537344966791252
171,171,2.3625050620153676,1.6626700083180712,1,1,7.704293845969351
172,172,1.1873217323710539,5.04042171822709,1,1,8.65621940604645
173,173,7.859235819921802,1.8956921111945901,1,1,12.739261061402269
174,174,6.357702256046524,1.0869696214764046,1,1,21.46158527125847
175,175,2.593105583054669,0.0,1,N/A,17.018076996101996
176,176,5.370750481523162,5.566165948567003,1,1,15.610977981732201
177,177,6.00873159051884,3.1638293832172346,1,1,12.407452276057942
178,178,8.587308632931874,8.054121714436697,1,1,23.885005055633524
179,179,4.65627227272694,1.3899722656528712,1,1,21.640618374980455
180,180,6.303628282143765,2.777587710057726,1,1,15.342079597832353
181,181,3.387342337814303,0.0,1,N/A,17.105597490528993
182,182,9.5691174050271,4.090163703839051,1,1,20.64824617735934
183,183,0.6823719405072981,6.272689189279289,1,1,17.49227499527234
184,184,4.488659428676006,4.66045387193596,1,1,22.733485854200815
185,185,9.679963386387946,4.4306108919986205,1,1,22.376822955090603
186,186,2.463962221693742,2.782047994740547,1,1,20.23854077061488
187,187,8.98895720410587,0.0,1,N/A,22.090464067937035
188,188,0.7565632659048827,0.0,1,N/A,10.464861026722664
189,189,6.750460583522321,0.0,1,N/A,18.355397859783913
190,190,2.7477355996413664,3.37773994821709,1,1,16.855342528657953
191,191,2.5544854414689433,5.482632881600478,1,1,14.269585761530191
192,192,1.4348490680231296,2.338213956670555,1,1,14.349307068427922
193,193,5.135199879813795,4.452591570065664,1,1,15.317189414779442
194,194,3.358696673569294,7.33824086530422,1,1,14.1495283715123
195,195,4.402706839829173,2.712365850493045,1,1,19.140591736833844
196,196,7.781045959813746,0.0,1,N/A,15.581335403039972
197,197,2.5879110896877187,3.9360888935845786,1,1,22.61388643882979
198,198,2.0138066732156803,0.4207338516694825,1,1,18.74181147409
199,199,3.578311803023505,1.663858107707774,1,1,10.310152837984923
200,200,7.210956149633824,0.0,1,N/A,17.08119014658182
201,201,1.1838576604942141,6.247362191339309,1,1,14.606607521683427
202,202,2.428686729035724,1.9692278632498383,1,1,6.885071564367406
203,203,5.521508733157537,1.4068676126955748,1,1,15.510131285505146
204,204,9.489739256454826,0.0,1,N/A,18.270168357384513
205,205,3.6431359516307116,1.4446002321147633,1,1,20.383411461834687
206,206,9.01580646946437,8.446875723133969,1,1,21.53799332904299
207,207,2.5361064823373933,0.0,1,N/A,7.944908002503556
208,208,9.0894512788451,6.145442762712211,1,1,23.321437814882206
209,209,6.383942732366458,7.4326119118195555,1,1,19.82232734525182
210,210,2.0819215698820615,6.964340163420958,1,1,22.07741735554297
211,211,7.551408381025877,1.749683843863049,1,1,18.926110924221128
212,212,9.195466690592292,0.860350176762793,1,1,14.625262498283815
213,213,8.40241823686656,0.17158266534334055,1,1,16.77541757143151
214,214,0.7180523859124888,4.255130530536593,1,1,18.558901976516633
215,215,4.289043227610239,4.705990638593329,1,1,18.373485829014097
216,216,7.518014368140489,0.0,1,N/A,16.57950983085672
217,217,2.732618278578618,9.582831754346993,1,1,18.256135635580797
218,218,3.8786302316268264,0.0,1,N/A,7.144152621425999
219,219,2.8508138454430343,5.600276390596881,1,1,19.937995459049986
220,220,1.6589010078537103,8.406827109044984,1,1,16.895441218258515
221,221,4.57346857623838,4.429934697994462,1,1,19.693994292989235
222,222,0.42876160571172495,6.077395293941349,1,1,9.795055246481144
223,223,2.26285376756742,6.518676475622847,1,1,18.753922406845817
224,224,7.2539757235809885,2.5967530639237313,1,1,17.084889479713645
225,225,8.578636159203299,4.409164739410781,1,1,18.79003915947416
226,226,4.738783027430975,0.0,1,N/A,20.921416870445157
227,227,8.0572431890993,8.692172772512144,1,1,19.55358327349552
228,228,2.3386092627778132,4.163363105695668,1,1,11.715777572795865
229,229,1.466214692921497,0.0,1,N/A,18.460472015299587
230,230,6.281295447851467,2.311796921916205,1,1,18.348713934137123
231,231,9.714501268684078,9.31792642213573,1,1,23.088376412692867
232,232,4.634800322479103,0.0,1,N/A,19.986194110245002
233,233,2.8669805010851723,3.819493635366414,1,1,20.941692609396775
234,234,8.442139847053317,0.0,1,N/A,19.643278269314433
235,235,2.921639588796471,2.6406158332262053,1,1,7.686150605931208
236,236,4.708191480709157,5.602372814304339,1,1,12.629150357005996
237,237,9.873083334213934,0.0,1,N/A,20.93848813875357
238,238,5.636816144375344,0.0,1,N/A,23.463692008418718
239,239,3.871239377137541,1.7912862351919212,1,1,9.741688306880283
240,240,3.881288118366757,0.0,1,N/A,17.986692877251595
241,241,3.5712812091344293,9.942595020324815,1,1,17.169500271386102
242,242,4.304792577116121,0.0,1,N/A,19.57751802717661
243,243,0.24279748712557225,4.037130619336197,1,1,23.26631695687999
244,244,7.647228549080206,9.654489556577172,1,1,22.70647252790972
245,245,4.685894955287471,0.0,1,N/A,22.57366638777131
246,246,5.2712402509103935,9.569963894865225,1,1,23.58703641250547
247,247,9.597188916899855,8.444578437079938,1,1,22.951346051622814
248,248,7.238257973522357,9.301454240110473,1,1,23.98576234887426
249,249,0.4112763823729648,0.5088570673128645,1,1,12.291328273611073
250,250,9.2957770422547,0.8252764543244584,1,1,14.864348051006775
251,251,7.776905669875378,0.0,1,N/A,21.26660796779248
252,252,6.941217348344888,4.939072602071233,1,1,15.332992909108224
253,253,2.2290334021341653,6.59910393065007,1,1,10.802005263383627
254,254,1.5040170132953279,6.702110259722537,1,1,21.658381132171577
255,255,2.095298047813716,1.034143569118744,1,1,13.974320693218992
256,256,1.969294731967729,8.136862767186807,1,1,20.312402456763845
257,257,2.3332136639339316,2.7936700272964563,1,1,7.383393359555086
258,258,9.307306392735837,2.105561385858794,1,1,11.886536415752037
259,259,2.5366914705246337,0.6349651706833204,1,1,18.271538489461904
260,260,1.9871247757249788,3.4923410228409146,1,1,10.523164381481909
261,261,9.904116848279125,0.0,1,N/A,17.444727834128265
262,262,8.270844366010264,4.028466560440358,1,1,16.34174620483897
263,263,4.677346963706572,0.29259555975240215,1,1,10.617655757692644
264,264,6.060170527562189,5.8513462115021,1,1,12.795056711198262
265,265,7.381080601910096,9.842981345883256,1,1,20.647395009841
266,266,9.116819916800864,8.044301948977676,1,1,20.82476440447603
267,267,1.701062568369478,6.281525204842189,1,1,8.348943622446809
268,268,9.568583079618726,6.09179415490555,1,1,22.187199852681317
269,269,8.9602211174122,8.891251383832229,1,1,23.78800787377515
270,270,6.771627538506861,8.580498371420006,1,1,15.935597823969069
271,271,0.833442871627057,3.558538573505483,1,1,6.323212525728496
272,272,7.2883747643331915,2.6390032802915853,1,1,19.65080136297805
273,273,1.1399904964153462,0.0,1,N/A,17.905860608050144
274,274,8.068073862074058,6.790040770100138,1,1,23.928163581727176
275,275,4.37313683071072,4.779869318713369,1,1,13.605099320630128
276,276,1.8823733146643107,6.936275042585201,1,1,16.827016962839778
277,277,4.228562694171831,1.8654490704442717,1,1,13.172571548695874
278,278,4.031433452470836,7.9415015412033005,1,1,18.12334501158703
279,279,9.87848183146471,3.173422180516593,1,1,15.118364100534425
280,280,1.8602741110067633,2.586683942721063,1,1,5.680588005791426
281,281,0.15406249168107733,3.5337475855086575,1,1,11.53214613958005
282,282,0.2889648399516631,2.216026951662707,1,1,12.82363599790962
283,283,0.055282110366758896,9.098865905506702,1,1,12.071639069416834
284,284,1.0631895166728378,7.40688132514221,1,1,16.16646305839088
285,285,3.4061900803000134,7.340542796492117,1,1,22.525744221250672
286,286,3.232891907751254,3.3779279202724375,1,1,13.236539007240395
287,287,2.557171377534253,3.104775045444602,1,1,21.563557806770962
288,288,4.208802506121508,8.65334797861063,1,1,22.428866151678356
289,289,6.8481431657065475,3.5436400447696514,1,1,19.093549347690463
290,290,6.990396614631756,1.7076786596664628,1,1,21.7389803863868
291,291,5.199178677443898,0.0,1,N/A,17.439541391429625
292,292,6.091959897221221,7.847459621779301,1,1,17.343994592101808
293,293,9.517274299380473,2.839644174467791,1,1,17.21667153686498
294,294,3.1570743912263453,1.4679318280771758,1,1,5.494722982344579
295,295,4.394522094012015,4.742150537986236,1,1,15.414441544763259
296,296,8.350664082929589,9.68420377253697,1,1,21.652973139700883
297,297,5.9929805202497155,0.0,1,N/A,20.721224949139597
298,298,4.398704587869565,7.833331099231166,1,1,14.202154322669548
299,299,5.81233618779672,0.5965426259172479,1,1,15.015887734782279
300,300,3.179181455620258,9.82798199794173,1,1,23.35615462730645
301,301,1.606662930608428,0.0,1,N/A,23.855684384361695
302,302,5.255670909292805,3.4250077477706933,1,1,18.978432685015505
303,303,5.711880598845152,6.094117772801556,1,1,21.707332015648316
304,304,6.224791556361238,7.849291760330229,1,1,15.972951711996297
305,305,9.287956799008372,8.374070716239633,1,1,19.217480547953226
306,306,2.3015787976209277,0.0,1,N/A,22.609637242505123
307,307,3.871463858547135,0.0,1,N/A,15.267410114591293
308,308,4.182326999943813,0.30695560062337646,1,1,19.245563992976333
309,309,0.33726800241354327,9.387641979865611,1,1,14.978004383125775
310,310,4.688524887287969,4.538078562026615,1,1,23.85008618494117
