,Job ID,Stage-1 Processing Time,Stage-2 Processing Time,Stage-1 Machines,Stage-2 Machines,Due Time
1,1,9.87128890323363,0.0,1,N/A,23.10893535231663
2,2,2.4689403648098898,0.0,1,N/A,10.363743148779662
3,3,8.6971147759317,3.909114572034621,1,1,19.740741573785943
4,4,0.8321080952087168,0.33778692289551104,1,1,3.2649038546728635
5,5,3.1814212189586897,0.0,1,N/A,9.460162002556725
6,6,1.5214661207070779,2.0513034008693176,1,1,22.85799103433363
7,7,6.242347072956884,0.0,1,N/A,22.48932171306677
8,8,3.702300093320414,4.150781671834116,1,1,21.656469949214294
9,9,0.8933114175463819,9.33302255203358,1,1,17.35666526436986
10,10,4.781600679436857,4.727888013187133,1,1,21.07131964672922
11,11,0.1650336224132165,1.2836753571385928,1,1,17.26022782619025
12,12,0.3467266482226816,6.660209132644698,1,1,22.148515685884163
13,13,3.5768184906424407,0.86063510830237,1,1,10.850437406815997
14,14,1.0180282260780582,0.0,1,N/A,18.945730582964927
15,15,6.382308210739602,3.76754664541897,1,1,12.988426062921182
16,16,7.372985850999916,8.457486843007914,1,1,18.732092631046083
17,17,6.852062515905818,6.394104627897036,1,1,13.329076019856986
18,18,3.313791977438685,4.921196999797591,1,1,22.195309431119995
19,19,0.9643455636023079,7.002857783767366,1,1,15.195178696249146
20,20,5.022759845273262,5.085328344100329,1,1,18.924572712883577
21,21,0.17266198979999148,8.616025466887868,1,1,20.70515567801648
22,22,7.703668531364699,6.9969229589139035,1,1,20.29094150859364
23,23,4.974020184437354,3.8237959100251917,1,1,10.106998160870287
24,24,1.8066191836217194,1.4993260627335403,1,1,21.202883377788233
25,25,0.8441321105898403,1.1716715284809576,1,1,14.060675541677771
26,26,6.0349073253567305,2.0478938355653087,1,1,19.495797623958993
27,27,3.4746787817719147,0.0,1,N/A,13.314142001760649
28,28,2.65517609310609,2.58425011373443,1,1,7.2977188294436255
29,29,0.43472490890734794,0.0,1,N/A,16.945858502129873
30,30,7.998756209906532,8.676320746824528,1,1,21.578870092510922
31,31,3.3659137299866093,6.637734034097653,1,1,21.67942564439062
32,32,0.500656217900014,5.612710460728217,1,1,19.150888556980586
33,33,8.225810751136951,1.4341352277104902,1,1,9.830205670432543
34,34,5.188010796138093,3.535644938717395,1,1,18.453339602741952
35,35,7.210374327788181,1.8187465208177223,1,1,15.600536626604875
36,36,2.7782210974303965,1.003816260796433,1,1,18.81421755487861
37,37,9.90079155892438,4.943091529911893,1,1,16.188880300861733
38,38,7.383894297277123,3.250889762120006,1,1,23.204100509651504
39,39,7.329791080800994,1.5620342623071548,1,1,11.892033706640524
40,40,5.697290929888475,4.238120270120355,1,1,18.912770328428532
41,41,2.4668464613230388,0.9483581988096013,1,1,6.601101837417815
42,42,2.5976079370675906,1.6981137661017787,1,1,22.05376582406177
43,43,3.320516559100329,5.411204414099739,1,1,18.915232943288572
44,44,8.279980322787443,0.9252663264258509,1,1,18.945651629681898
45,45,5.451445264288385,4.22229681905799,1,1,11.850883533638868
46,46,1.5618409622285023,9.16810020690987,1,1,11.663562373439131
47,47,1.8609167334884669,2.906640336190117,1,1,19.89071662933056
48,48,2.4267265791731263,0.0,1,N/A,13.675502636742964
49,49,4.702139023708699,3.7047727939416975,1,1,21.23614244728315
50,50,5.608191464819631,1.3715612209648276,1,1,8.834266400364301
51,51,5.985491317045369,5.646765508508808,1,1,15.76608002986951
52,52,3.5294152065972817,9.244675933231527,1,1,22.262041074266605
53,53,1.0123679188230683,1.8891592713746785,1,1,15.893124736436185
54,54,6.014697520414783,7.858824864014929,1,1,22.518154141439332
55,55,5.583400594754048,2.935601771928332,1,1,17.502641507178794
56,56,9.88140445348131,6.697582339201195,1,1,18.621645477961977
57,57,1.2276284026998219,1.6663517706770192,1,1,7.319121998553475
58,58,7.649269518744751,7.116277361195172,1,1,15.438732288793762
59,59,5.170824934634969,0.47617727293280177,1,1,10.354091013459975
60,60,8.886575944121414,2.2202288222488664,1,1,14.133284311140581
61,61,1.410444326630661,1.4510757616799375,1,1,17.054127468783765
62,62,2.5574664297525707,0.0,1,N/A,17.328986015634058
63,63,8.610994741710424,5.083894611042133,1,1,21.94856842628719
64,64,0.9160595793146609,9.189502805622002,1,1,22.298189287743238
65,65,2.0853942711056805,7.940491980431677,1,1,14.138432899812202
66,66,1.0349088444209742,3.857653005371793,1,1,9.01081234433608
67,67,9.924292755091741,5.816796645581198,1,1,22.373126929620273
68,68,3.2724294064059576,9.762755281866012,1,1,17.150725619069185
69,69,4.126244024104798,4.980134953649584,1,1,17.56845844807762
70,70,3.2970590136553444,0.0,1,N/A,14.837304450849334
71,71,4.302990807672755,7.892244591338661,1,1,19.182897752639892
72,72,0.7645743418057316,9.289027336149271,1,1,14.774512303606908
73,73,9.792295791045568,6.3584760592904335,1,1,19.48540344498348
74,74,6.999365256181582,4.917947093149836,1,1,15.807200673845948
75,75,1.5510046797338217,0.0,1,N/A,18.7729880689353
76,76,0.28422789944727134,9.217220224215815,1,1,20.736461914954027
77,77,0.7719635940202929,7.558610432877366,1,1,23.12633159144695
78,78,6.308915946787561,4.0200837790709345,1,1,17.64751475418473
79,79,0.5481700036355142,0.2700109859521249,1,1,0.8559481028101406
80,80,6.634095943959888,4.726296124519015,1,1,11.493019932777297
81,81,2.0283017323821495,0.0,1,N/A,16.302005265535648
82,82,2.224178089992521,5.88892982771535,1,1,12.067313113939257
83,83,4.359443471565018,6.771580846920911,1,1,12.759354652787534
84,84,5.163684925507938,1.8737550436377404,1,1,17.42995232073188
85,85,9.367789044662665,3.908432171521381,1,1,17.445070997608788
86,86,2.6201563448681497,0.0,1,N/A,11.505890960672764
87,87,1.1921738880708843,0.0,1,N/A,13.956578348824277
88,88,4.432160038853476,8.378007586895702,1,1,23.220617072038834
89,89,3.3907712360467004,8.783389051763997,1,1,19.14082585228344
90,90,2.7000884638294043,1.7101811319532167,1,1,16.852459997262613
91,91,3.9794159044512902,1.101196357932246,1,1,12.068946741690555
92,92,4.425094448894596,8.679055803211382,1,1,23.277683215280774
93,93,9.771414529118184,9.750358218582253,1,1,21.502144609717835
94,94,2.0862431240959625,7.522965389566326,1,1,16.252718695857414
95,95,5.052925810699729,0.0,1,N/A,19.113402058651204
96,96,9.439985469245707,6.504034283953843,1,1,18.414736112146628
97,97,5.100417169236911,4.041098500403556,1,1,11.738094754392495
98,98,6.679674450290345,7.313544422913898,1,1,15.403393645559536
99,99,5.449029980893144,9.6162068425376,1,1,17.644901893269257
100,100,4.4604184453528815,0.0,1,N/A,20.14392111642568
101,101,9.568469899965164,0.0,1,N/A,23.962980307735968
102,102,3.5260763027374784,7.968188410180338,1,1,18.044368935668583
103,103,7.868735989788687,2.9940480639039793,1,1,20.387768189132547
104,104,9.555022121436927,0.38007640138910226,1,1,21.917603400527057
105,105,7.8245450678883355,3.415449357282354,1,1,19.381763966403003
106,106,3.6627997358980813,0.0,1,N/A,15.843886313991156
107,107,0.9954991320439621,0.0,1,N/A,11.027512277605222
108,108,4.570796429140554,3.295651940527474,1,1,10.970065839302006
109,109,2.910454784399068,8.771857354216635,1,1,14.106707273616323
110,110,1.6524402907727775,0.0,1,N/A,20.489264075972677
111,111,4.318416497785077,0.8264496571306923,1,1,11.812781847439108
112,112,1.5027205385401166,5.329667450436632,1,1,13.447107884573231
113,113,0.40453437416018256,0.0,1,N/A,20.001140263569624
114,114,7.214720448681464,7.79644351807554,1,1,22.73545669148652
115,115,6.280758732503263,0.0,1,N/A,18.970757791046708
116,116,7.4625898422338635,0.2104286364752217,1,1,23.39909321553777
117,117,0.8122871089476658,9.935537496014916,1,1,21.416709935644185
118,118,0.6412909272851952,1.0530477058923082,1,1,23.496856743533996
119,119,2.004239812853225,0.0,1,N/A,12.79958105174895
120,120,2.9773187556107072,5.66220699185229,1,1,18.13391249110779
121,121,7.841516992789892,2.6615991995728128,1,1,22.07441094904147
122,122,0.1154183778078155,0.0,1,N/A,23.18237010679077
123,123,6.657115822289915,3.9962238660009177,1,1,16.935656679165923
124,124,3.7012513537155547,0.23615679726267436,1,1,14.932966818979459
125,125,2.7485044779438326,0.0,1,N/A,17.98678979316358
126,126,3.7963108488875585,1.7402102024492516,1,1,7.22679834429222
127,127,2.4914634884956586,0.0,1,N/A,20.62307101273726
128,128,0.7671474722048044,0.3961008435058,1,1,16.632644427596425
129,129,6.735262306707572,0.0,1,N/A,13.710964435288883
130,130,3.344299196541175,9.626337890653481,1,1,14.49749251207006
131,131,8.504044550669512,0.0,1,N/A,18.141733556500903
132,132,1.353163342348157,0.0,1,N/A,15.418952566529931
133,133,5.614642457920508,3.86878024830694,1,1,22.174790820229106
134,134,4.1976043559618414,3.300880615497194,1,1,16.985832806788626
135,135,5.581622583735346,0.0,1,N/A,16.30748194278751
136,136,0.7920879393249991,6.690960021408956,1,1,14.790130862096987
137,137,8.913017178278624,8.690459127921777,1,1,18.19590827701478
138,138,6.143789228690247,2.02934854507981,1,1,14.011831193437398
139,139,9.693676836410042,0.0,1,N/A,17.273109428868924
140,140,3.7658836575977084,7.772077665436643,1,1,17.195241171561907
141,141,9.726843235205397,4.359077183935249,1,1,19.148931403158517
142,142,4.563742871475726,0.0,1,N/A,17.75673991710624
143,143,9.60809098815864,8.434716968924294,1,1,22.713414119452413
144,144,2.2891749506709838,3.9389494415841444,1,1,16.862164447980142
145,145,3.636099128253103,7.690681426962346,1,1,22.31458137126311
146,146,3.0249874777491925,2.699653168792455,1,1,19.056635405229294
147,147,3.4487671293179343,8.743492504083086,1,1,21.722167314225317
148,148,5.167890155427201,8.609024550189568,1,1,20.43662052685529
149,149,8.888169550495775,0.0,1,N/A,17.611185528185473
150,150,5.49974859822165,0.6206412696844543,1,1,15.112227300531188
151,151,8.267352666378796,0.0,1,N/A,23.41668550713355
152,152,6.1200478749607985,2.461200199482633,1,1,13.31525267096714
153,153,0.053181289788440944,1.7267590111855624,1,1,13.32308336129027
154,154,0.5680916272630621,4.121867918258594,1,1,23.667791465565603
155,155,0.2071258105774687,0.18454094504003593,1,1,18.985082352827227
156,156,8.249848483068424,0.0,1,N/A,20.043209257885216
157,157,7.361796249266034,2.184695434947035,1,1,21.076504264682466
158,158,5.34477419987946,7.958748276435951,1,1,13.554358493185317
159,159,9.180853350394969,0.0,1,N/A,21.197322603603254
160,160,4.285656504693613,0.0,1,N/A,7.8725843180820725
161,161,0.5111367302585124,6.858026727269176,1,1,8.560080284267706
162,162,1.653403444150151,8.347795338392931,1,1,18.34791103983656
163,163,6.735119884753819,7.122853604152778,1,1,16.720649405516063
164,164,1.1240019688777003,4.203421543019196,1,1,8.957855902866923
165,165,3.379742249133945,0.0,1,N/A,20.940785343341304
166,166,3.3068390225396627,6.904049105995494,1,1,13.872129113819884
167,167,1.2048137447213714,5.2742682978174615,1,1,13.189014791676104
168,168,1.5885097494314293,0.0,1,N/A,11.099526571044333
169,169,3.0382745193943803,8.709871198278211,1,1,13.585528351961585
170,170,2.3017297026246943,0.0,1,N/A,13.497102283730786
171,171,6.488683150175155,0.0,1,N/A,9.872529151712607
172,172,0.7761532711634545,6.567554586592097,1,1,18.165174234727086
173,173,7.554451201651213,0.27193820935952684,1,1,10.52865531776906
174,174,4.813824541376323,7.0736161891005125,1,1,14.364451514770973
175,175,7.319534004668458,1.5517624726221602,1,1,17.167707474905107
176,176,0.3558695822290048,0.0,1,N/A,9.5542327562525
177,177,7.115276169440637,0.23122249066303335,1,1,19.507181529233534
178,178,5.214905015582464,1.6235804509299556,1,1,7.269381105983562
179,179,9.894246689922937,0.0,1,N/A,23.751670414522064
180,180,9.678829054018319,6.381775169456675,1,1,22.00784135054523
181,181,8.600695313930968,5.132960621177415,1,1,21.632993321751464
182,182,2.7659749248498433,2.585643507172144,1,1,15.95403221607311
183,183,6.942071227349148,0.0,1,N/A,18.587454783759725
184,184,7.023708860548197,0.0,1,N/A,23.42085199936512
185,185,7.7612256232966415,3.3578753342105183,1,1,19.79437642249401
186,186,9.896678535957207,0.0,1,N/A,22.725040532641255
187,187,5.489499064169028,6.911674618023858,1,1,14.790242236655384
188,188,0.8514132416376796,9.000281631475037,1,1,17.659198091745964
189,189,7.716033223153884,5.678239827376892,1,1,17.677792603553577
190,190,5.521882594721038,8.477291098496355,1,1,23.962097541381
191,191,9.58837411650652,6.656307035429822,1,1,20.355168343747387
192,192,1.5768109269372055,8.008671165750762,1,1,17.766585207862533
193,193,2.489295728308223,0.0,1,N/A,22.67129703805027
194,194,7.391555163255456,0.0,1,N/A,23.63737444840654
195,195,9.40621578776208,1.83046633692874,1,1,15.148030436115635
196,196,9.349583440093673,0.06836900634974108,1,1,18.196738480042896
197,197,8.790903162512297,8.448061246580226,1,1,17.72323122880307
198,198,1.357887499367182,4.639020897638523,1,1,13.606061641252728
199,199,8.045963733807652,1.1526783992290501,1,1,19.238700195428244
200,200,0.003387397071712428,4.434606054238595,1,1,21.732920538887626
201,201,2.7248587525806567,0.0,1,N/A,23.239811430534527
202,202,8.138355398289088,8.85626190237787,1,1,17.766079904822437
203,203,4.729127975744395,0.8289559552485781,1,1,21.693049090304108
204,204,9.965755567754897,0.0,1,N/A,20.496755469926754
205,205,9.27584570605209,6.557096143277344,1,1,16.150110407259127
206,206,8.252591852326617,9.948873547959389,1,1,20.909139492593287
207,207,1.9896320399895495,0.0,1,N/A,10.940124183154063
208,208,0.8014950452840675,0.0,1,N/A,11.402169781033592
209,209,6.8363768862579715,0.0,1,N/A,20.502730594643268
210,210,4.054931354549533,7.38245307093667,1,1,22.317999721797705
211,211,4.107276788020867,0.0,1,N/A,20.42566475863763
212,212,6.861467585436033,2.9348313204165297,1,1,17.179325840380677
213,213,9.690524080396042,2.7731021620249763,1,1,13.795488512805761
214,214,2.7797759524832957,9.861283010365591,1,1,21.128475929913023
215,215,8.33254146456499,0.0,1,N/A,18.525494068894208
216,216,4.473685693452541,9.138841777080332,1,1,23.213545938418378
217,217,2.5553308471694747,5.6980416073126285,1,1,22.501471037406247
218,218,1.381417525436739,4.716401386313349,1,1,11.575225458941837
219,219,3.927733119067953,3.280772683226949,1,1,15.654060042097754
220,220,2.1231556541115113,0.0,1,N/A,11.003214315801467
221,221,0.12800634251826204,1.939504393560605,1,1,20.997936660536613
222,222,8.417765522477307,4.033307033530717,1,1,21.614950838504896
223,223,5.188303394900741,0.0,1,N/A,22.996414164217967
224,224,2.132434725052259,0.0,1,N/A,23.93661636620245
225,225,6.391964405494921,6.150835095311001,1,1,12.58705727935299
226,226,2.3986531952627854,2.956977078333143,1,1,20.729619035433938
227,227,5.56530029648315,2.397591032880385,1,1,9.07799102267929
228,228,6.089221417915657,3.0487202664622473,1,1,11.225094684622025
229,229,0.49078769982820347,8.784469509319097,1,1,18.283660968431946
230,230,3.2489275986831445,2.095733500188536,1,1,23.075312871581886
231,231,3.2789888999148573,8.969064411219815,1,1,21.11080797078869
232,232,3.059874114989861,5.6527137739621995,1,1,19.294292230574584
233,233,1.2118981479744295,7.955337472207802,1,1,20.38495662453563
234,234,2.5116854175151024,0.0,1,N/A,23.662124556646773
235,235,1.4201316641692863,0.7051649096118751,1,1,8.363674601042927
236,236,0.859246274515375,0.0,1,N/A,16.14612977850315
237,237,5.846991818377997,2.7193093882810713,1,1,22.56409350062895
238,238,7.675203302698325,2.3685293656903728,1,1,13.943471107039628
239,239,1.4876546865615126,3.3057805830080387,1,1,16.72447778219139
240,240,5.327555343668436,8.878979566431093,1,1,22.15552979550034
241,241,4.642336121416081,1.121772770467916,1,1,20.963844723301275
242,242,5.468301118355042,7.569423965010758,1,1,19.690624123596944
243,243,5.029310669369257,8.508438968519288,1,1,16.098276126061076
244,244,2.7735117084579475,1.4977252071738922,1,1,6.13453911155181
245,245,6.097225044791462,5.036088846220154,1,1,18.38452013897065
246,246,7.834415459543162,7.947263843089916,1,1,19.978801921151373
247,247,4.897619643036878,3.8717302059711676,1,1,21.31251410066976
248,248,8.186152112356563,6.4148617481805195,1,1,21.904952413812957
249,249,2.980963485867086,8.300881341262526,1,1,21.446671828015216
250,250,2.3975805390190286,0.0,1,N/A,19.493235822994567
251,251,4.33970081329766,5.821920250799307,1,1,13.073854840320005
252,252,9.751265611990728,3.3759209365657528,1,1,19.03180446360362
253,253,5.9117748436950865,0.7132485895073826,1,1,12.142840494820039
254,254,9.170145236689107,4.800747759963756,1,1,15.916169823321024
255,255,3.4681455733369204,8.075722384938004,1,1,14.78585516424466
256,256,7.402080345707738,0.0,1,N/A,16.174459313370434
257,257,7.883315362377079,7.288377123866267,1,1,16.74557069515826
258,258,1.403729848946249,9.610747592776297,1,1,13.732703033843414
259,259,2.55726965355324,8.545188776473871,1,1,17.392856454355215
260,260,1.5295781270775866,5.671871096858416,1,1,13.8156673642554
261,261,6.503935202553954,1.8896403681563478,1,1,12.416448517503364
262,262,9.846405986519313,7.795050460446996,1,1,23.401439370055066
263,263,0.026056283970447014,6.89956792394554,1,1,12.294963671608809
264,264,5.643668648085375,0.23633793609635356,1,1,11.094252501531045
265,265,9.642503355834268,0.6621613102271473,1,1,15.824046330863878
266,266,4.4967733218554145,3.1716487126785653,1,1,10.17646227687838
267,267,3.8128619839706124,9.295551324778343,1,1,14.922640230933563
268,268,5.4096985433179325,0.0,1,N/A,23.399341419160365
269,269,4.6809325966646,7.770125025483601,1,1,20.879836930462012
270,270,1.7205289211389374,4.46494252995574,1,1,13.84759299083587
271,271,5.905998117580303,4.779073865732038,1,1,19.379747501459786
272,272,4.450813391504501,0.0,1,N/A,19.668673191875012
273,273,1.414858535312702,0.0,1,N/A,21.852030911304425
274,274,4.94841658873389,0.0,1,N/A,18.695542041133297
275,275,3.402579750236263,0.0,1,N/A,15.89973355970682
276,276,9.736862379331471,3.2442266674067968,1,1,13.810911222787444
277,277,2.730162554480623,0.0,1,N/A,8.726306168442951
278,278,6.7078010757737445,0.0,1,N/A,15.217850118927158
279,279,0.8700761831287107,1.363381274864519,1,1,10.675649961373121
280,280,3.5214449503827563,3.6048907080659776,1,1,17.87723432481727
281,281,2.1572224513472738,0.0,1,N/A,14.809511545397491
282,282,9.153843254142522,3.657540834376264,1,1,13.752343290394514
283,283,1.806237845897477,1.237104936748128,1,1,9.073513813300721
284,284,8.439903133593502,8.989818743022209,1,1,19.083334125684786
285,285,1.9943387129893664,0.0,1,N/A,14.483566085875598
286,286,9.744808221031853,0.0,1,N/A,16.098119236270914
287,287,1.2202554082861394,3.7090126389241362,1,1,9.908513304681476
288,288,6.512011000970542,1.0521098777251425,1,1,17.094869092058666
289,289,9.37296056170616,4.723853137281545,1,1,15.989028677074238
290,290,6.235646240692838,8.197742655591053,1,1,18.100695838647137
291,291,9.746595924418703,0.0,1,N/A,20.784691651471523
292,292,7.022447211406288,2.5795520156037197,1,1,21.030291019902656
293,293,3.807080655343036,2.4432243702061407,1,1,12.317170586254722
294,294,8.560666086956807,9.678363259689911,1,1,23.195647934383086
295,295,5.689920488962937,5.521899297510215,1,1,21.186357680834234
296,296,8.715659364737226,5.480601715565719,1,1,15.795298927466842
297,297,9.60042257546206,2.6477842297990395,1,1,22.290534258915855
298,298,6.371239984577621,1.5619647967820582,1,1,15.672423727775396
299,299,4.532136932039417,6.648700642250685,1,1,17.841237693528683
300,300,0.31825011492004895,9.454175795394193,1,1,14.756133876697888
301,301,1.82120443292072,0.0,1,N/A,11.706757251879047
302,302,7.005482116919138,3.510133854509725,1,1,14.478445858012446
303,303,5.594249598017692,4.212242060813148,1,1,21.389226898160594
304,304,1.1596699021318868,0.6635313265714371,1,1,15.414452363099702
305,305,6.747429325824119,2.792078003803603,1,1,11.29229843055665
306,306,1.157435480146214,8.014025784385339,1,1,20.01641835323845
307,307,7.887138402456956,2.366676283316731,1,1,19.919232930594628
308,308,8.464201120825676,7.34931386809653,1,1,21.052735457011607
309,309,7.2880918958794405,0.0,1,N/A,16.819863796097575
310,310,0.8263302807292716,9.906182618773725,1,1,23.71813234506331
311,311,2.221879142137224,0.0,1,N/A,14.102936176975664
312,312,4.971761100845904,7.010279959850017,1,1,13.308673255318643
