,Job ID,Stage-1 Processing Time,Stage-2 Processing Time,Stage-1 Machines,Stage-2 Machines,Due Time
1,1,8.594219580254896,3.720546956834597,1,1,18.65643854610954
2,2,4.130658717047979,6.528761699992872,1,1,16.254283715586975
3,3,2.313669453738647,1.87743707807697,1,1,7.947090775679566
4,4,7.0195520665525475,4.056048570025609,1,1,19.03845842812056
5,5,8.66683786297899,2.044249404839854,1,1,15.734507157713338
6,6,1.8015192999894036,5.1223111512543,1,1,12.223298289431895
7,7,0.3826462817540299,2.4486405293179025,1,1,21.06768405058441
8,8,7.033308288880097,9.093650168060446,1,1,20.487890581898093
9,9,1.52870786163125,8.72271338507878,1,1,14.942013117739837
10,10,3.1146608841143797,7.593137264700632,1,1,23.472479845565218
11,11,7.0022400522596975,9.07288097031266,1,1,20.175556130740038
12,12,6.7765483204412424,7.376083990813141,1,1,15.4677302828288
13,13,8.162344706185205,0.0,1,N/A,17.10751388909923
14,14,6.140399428832134,0.0,1,N/A,13.622205733697362
15,15,3.4011800017394576,6.254098119359988,1,1,19.310526665499452
16,16,3.0272729891035333,7.856005158776571,1,1,11.143877876681737
17,17,3.40358843641419,2.4745087190193873,1,1,17.045056903077473
18,18,7.011419465087279,3.7725944416435597,1,1,20.77808770216214
19,19,3.1905457211184474,9.958458132964319,1,1,16.73180469254955
20,20,1.0519452910117544,0.657770640233305,1,1,5.935454369277469
21,21,3.355426835873392,9.053110291679909,1,1,23.97841603533886
22,22,6.979235086421708,0.0,1,N/A,16.37392298176368
23,23,4.309147226164041,0.0,1,N/A,22.54285860403499
24,24,7.911882036549719,0.0,1,N/A,17.80728076109184
25,25,0.005314373991593957,7.137896906282711,1,1,13.381418437347621
26,26,4.134555319397062,7.336726336756492,1,1,21.73667450351455
27,27,3.4767816340296087,9.942250647310523,1,1,19.391674181898058
28,28,9.805655089190862,9.184489790100189,1,1,20.99194726209085
29,29,0.2619138827435974,2.0896403393799003,1,1,10.267170785909933
30,30,5.096252580028806,8.677236398781634,1,1,15.993541298148624
31,31,4.139534608877003,5.800470611407896,1,1,17.37823933227372
32,32,2.9027138443505573,5.94313914870116,1,1,23.152152014932028
33,33,1.7816233059071807,0.0,1,N/A,16.666955164832228
34,34,7.365811256775983,0.30773655347745565,1,1,12.915453708263366
35,35,6.097213823100627,4.804044882458491,1,1,16.241136771384433
36,36,3.6032870518064786,6.107655245611335,1,1,13.105273431377238
37,37,9.229525424081347,1.2671828088462656,1,1,14.429547782432692
38,38,2.646885930117292,0.0,1,N/A,9.986836299654268
39,39,2.468863091150274,7.982184553622382,1,1,19.826197432138486
40,40,6.560924023422996,1.3973950253385636,1,1,20.71904221463968
41,41,5.200805595231418,7.852755080037714,1,1,18.271055376142723
42,42,3.78721512805243,0.0,1,N/A,20.476906929657158
43,43,8.6744774866629,0.0,1,N/A,19.198770742802687
44,44,9.14247249735605,8.976503139463986,1,1,22.814715089348883
45,45,8.888694192557951,2.6950669491706813,1,1,19.56164941819692
46,46,2.1338805245502734,0.0,1,N/A,14.46866838236016
47,47,4.0552234267235585,5.169164297769432,1,1,20.972821689173294
48,48,9.521946355340408,5.807715995163235,1,1,23.76535244927817
49,49,9.10592756026597,0.2489628090301077,1,1,16.902030234407807
50,50,9.924897130543544,0.0,1,N/A,22.1708704634667
51,51,6.015439507373834,0.0,1,N/A,21.766847818019855
52,52,4.2744948793409705,9.042020115539277,1,1,23.104055323847696
53,53,1.3724507528984997,9.323442412761674,1,1,18.70274939362266
54,54,7.653230102950582,2.3839061612447345,1,1,17.845059326661726
55,55,7.9155495860669545,2.416526308830509,1,1,19.48027979657335
56,56,2.238429056820068,6.5728552925527435,1,1,16.485244628745924
57,57,5.425284755646606,6.975743137794637,1,1,20.54718646319983
58,58,3.6408048387498892,0.0,1,N/A,21.28984171318942
59,59,9.300660841580498,0.0,1,N/A,21.75453205054038
60,60,1.3231482158932228,2.2005968130474307,1,1,3.798258055272777
61,61,9.469182880573378,5.657656753194247,1,1,23.657857157074623
62,62,2.261756234298564,8.826032316486714,1,1,13.602899064444625
63,63,1.1866961538394571,7.503271369657002,1,1,17.52000066769558
64,64,3.6336770806549588,2.3675702948371025,1,1,9.677118615308073
65,65,7.251094733467943,7.8958100778293705,1,1,21.657657358347546
66,66,2.6666275472763257,5.4273766003558315,1,1,22.3433186677373
67,67,3.7630602747116693,0.0,1,N/A,20.99090204273019
68,68,7.9628686428494975,7.712026309230412,1,1,21.03773633705177
69,69,9.479547705437747,0.0,1,N/A,15.394155231670796
70,70,1.376911386689862,5.945293746646044,1,1,18.801138314215393
71,71,5.893790072518773,8.535593114166767,1,1,22.003876806578315
72,72,3.0179552284448183,6.851916165223866,1,1,14.877586096327148
73,73,7.5332221072098315,0.0,1,N/A,18.45989106631495
74,74,6.194892963404076,3.2136163458153577,1,1,10.698988228185582
75,75,2.3189900833339894,5.635883430604335,1,1,15.23973879773645
76,76,0.6609417479688551,4.635018295074708,1,1,12.032530723303815
77,77,7.958563034647492,5.239666732380223,1,1,22.71748780840748
78,78,6.033490764763697,8.397216653233992,1,1,21.34616116062234
79,79,9.70229844433481,8.843638495560128,1,1,19.48935761704853
80,80,2.0634104601977157,9.276174077198284,1,1,21.338268555832144
81,81,0.4317122358896974,5.730608365785736,1,1,22.8468935026882
82,82,0.4295885027464874,2.1717396229117547,1,1,4.037592473275599
83,83,4.658787425401128,7.707763664753232,1,1,12.833925117587002
84,84,6.837645092750918,0.0,1,N/A,19.176360765080652
85,85,6.27986360451878,0.0,1,N/A,14.316870801866138
86,86,3.4843520424310137,0.0,1,N/A,20.14262720664172
87,87,9.174164650500492,8.478250810594911,1,1,19.149849149115408
88,88,3.7988534289532163,4.121532000615661,1,1,16.477518784972357
89,89,7.60409431187907,0.0,1,N/A,16.97614099139044
90,90,7.254591151965752,4.827805051845209,1,1,21.045189099184423
91,91,6.2114034778562965,1.844998539788798,1,1,17.947276253792317
92,92,8.346741017253484,2.4003649638398263,1,1,21.836821365772682
93,93,5.909211697917214,9.14396910639682,1,1,20.022707395838598
94,94,0.3303617454204777,3.117090625356748,1,1,22.54597595524814
95,95,6.888972200051398,9.431521806505277,1,1,19.61651743438075
96,96,7.243586473500234,6.185761744461841,1,1,18.94838264352679
97,97,4.308991170429262,3.2487575349171802,1,1,17.47006957618964
98,98,1.4143894766216614,8.532970756871398,1,1,11.141726502497455
99,99,5.399027793598199,4.090904000852992,1,1,15.755388339169302
100,100,8.09349719862912,0.0,1,N/A,16.687209743325198
101,101,0.6002702821311667,6.947699513250112,1,1,16.774101659183877
102,102,3.6661226441184014,0.0,1,N/A,22.98521156521391
103,103,6.729031405500639,5.481817052150612,1,1,18.790277174225462
104,104,1.3285392773647486,7.899342695172042,1,1,9.998452915670569
105,105,1.090991299677816,2.960909946431778,1,1,6.039685577435467
106,106,1.6310950831498894,4.891013687387666,1,1,8.006037468117324
107,107,6.982071319118278,6.78727947051426,1,1,20.084235811619823
108,108,6.519355770862613,0.0,1,N/A,18.095011130737714
109,109,7.716259675929848,1.7407424822290118,1,1,11.830521629808175
110,110,4.2173460725197724,6.027988276285234,1,1,20.983080131453967
111,111,1.9225450537416877,0.6643408362767012,1,1,23.037856893358548
112,112,1.631343381615069,4.148406201672473,1,1,14.069536734358385
113,113,2.68340180223795,5.363169089403243,1,1,15.144689912734968
114,114,9.047924693062845,1.7475996329317944,1,1,13.056899831804891
115,115,3.541215225346094,9.429116402857442,1,1,17.762138861701324
116,116,2.820236629211305,3.3222235198988406,1,1,23.277518666002646
117,117,2.046322315447914,9.870552968824992,1,1,20.103222020934673
118,118,5.15660275900373,8.440047575184765,1,1,23.450108917971466
119,119,2.888011212074182,5.181605457557778,1,1,23.32561880565655
120,120,1.4804206232754646,9.145624008809317,1,1,21.38675825524695
121,121,6.110986036135682,0.0,1,N/A,11.703332694222096
122,122,7.7184253427131395,8.131837592910035,1,1,20.115838459009186
123,123,5.696527447934072,0.2802826112907897,1,1,19.838756068044923
124,124,8.607472588508832,0.0,1,N/A,19.418417391695424
125,125,4.810080769880956,2.2394870210158957,1,1,7.851968856199947
126,126,2.1640641998668553,2.0185955844844052,1,1,17.70425953420186
127,127,2.694807373691106,0.0,1,N/A,12.282641791868848
128,128,0.22908486020869367,8.686284529940536,1,1,22.42790943683505
129,129,4.229545802742999,1.128183545982947,1,1,12.815059087528827
130,130,0.18748619246287568,7.7779823654192075,1,1,15.241164095650017
131,131,5.560135572267033,0.42525182568384445,1,1,10.337714205235784
132,132,2.461734744882099,1.477555255500853,1,1,14.015328576378684
133,133,5.229256903212137,1.5230681645761712,1,1,13.315339800353815
134,134,4.655225792086371,5.740299284670561,1,1,16.325339790027787
135,135,3.2611276114585763,3.9860937155757314,1,1,11.302344710514419
136,136,4.9060092103627815,5.269609377279374,1,1,14.485682164309612
137,137,1.4628156258496894,2.229697950277637,1,1,10.147649738434204
138,138,9.82700648557392,7.60452452283345,1,1,23.733857617813477
139,139,0.8389600490422766,3.5284325601570865,1,1,14.481725444389008
140,140,8.395164997060743,9.766768270586129,1,1,22.76232608390669
141,141,4.3290527797783005,2.770746527614948,1,1,15.086177215311576
142,142,4.455040209387074,6.874956538404246,1,1,14.174118112574359
143,143,5.1375303572668365,0.4475241057995494,1,1,20.290362845857548
144,144,6.749217399158018,1.953166256220189,1,1,19.872153658464946
145,145,9.59271576717837,7.309558673924919,1,1,17.61678257584998
146,146,6.003916428446652,0.0,1,N/A,17.146605581183763
147,147,9.2058692974493,1.997985304469344,1,1,14.834932045662221
148,148,1.753401942082693,8.859748652357254,1,1,13.6512894917568
149,149,0.8773350225606413,0.0,1,N/A,12.242532892781364
150,150,6.143591024272674,6.095928057510262,1,1,21.74801482530882
151,151,8.91347401046734,3.6751374500484637,1,1,16.426211871574765
152,152,9.763652918643825,4.925044149424343,1,1,19.010862030056074
153,153,5.063969292276828,1.8588897487153333,1,1,22.95599438388157
154,154,3.8813275941680727,9.882101412475869,1,1,21.85374616834134
155,155,6.9894319476670175,3.2923099114993013,1,1,17.368058514044264
156,156,0.6741172686709074,5.56133980859164,1,1,21.205804843603843
157,157,0.2647635164405304,9.823447348656334,1,1,23.829316478437995
158,158,4.00849322570846,0.0,1,N/A,16.885698252921355
159,159,6.197263888225178,7.549011157825646,1,1,17.85114563630622
160,160,1.8311923216172676,4.844264264501077,1,1,13.835496747006943
161,161,0.6896760178293726,3.6094052521138345,1,1,17.98379434465145
162,162,3.6115803415862224,5.214876015653099,1,1,21.034101606146606
163,163,1.631978585734325,4.112411892514554,1,1,7.107142559106735
164,164,9.958760146608679,8.091068783419136,1,1,23.24970102236352
165,165,6.12015793238948,6.54945146135633,1,1,14.760473919583914
166,166,2.7976152549977753,0.0,1,N/A,20.863321564795818
167,167,1.6622246733026758,3.8543461713899276,1,1,13.624971772123308
168,168,6.85493761181932,4.6524343052947605,1,1,18.385704205560586
169,169,9.904190515580503,0.0,1,N/A,20.06828587384298
170,170,8.644991143033314,9.7961752811364,1,1,23.224789071376797
171,171,1.5987985176756736,8.327513779676224,1,1,20.18535969052054
172,172,6.0550901576262035,0.6492860494707298,1,1,20.29390301518514
173,173,8.572963318879822,2.7534373070900395,1,1,19.731087149185882
174,174,9.243976139546358,6.611382024606787,1,1,18.030336107727496
175,175,0.7493643418232676,6.353120330949409,1,1,18.747508994609202
176,176,3.8095565706165333,0.0,1,N/A,10.339971562517018
177,177,9.634336720689312,6.536611352826131,1,1,19.46617624161924
178,178,1.676923136907269,6.39463147132178,1,1,22.174108907948394
179,179,7.826347903605218,8.772316071961168,1,1,23.86962904722959
180,180,5.5516186613883765,8.841619054575416,1,1,19.628632979267287
181,181,8.154877945637786,6.947384032772642,1,1,22.14872917241797
182,182,2.832533466769088,2.898116412120374,1,1,7.105314431081092
183,183,8.874127303410503,5.345922885883084,1,1,23.529589105160767
184,184,4.736578370288687,8.896476021614884,1,1,15.18642964539122
185,185,3.5649252449747912,0.0,1,N/A,10.750901995959648
186,186,0.6306819912799122,2.2461228434904355,1,1,18.196293185798837
187,187,9.56433711854318,3.8228291079928045,1,1,13.80542404599095
188,188,1.9219801071741383,5.235310437578926,1,1,12.405092356648701
189,189,3.5060943698918767,8.145691658996938,1,1,14.741718520112176
190,190,2.936976521701342,2.2417287931324967,1,1,15.17030571708078
191,191,8.94478259998744,7.706184842741386,1,1,23.481062979511904
192,192,7.931074142170161,4.741402780128644,1,1,20.25527506534822
193,193,6.96160628048299,1.675521713652336,1,1,12.777511761498804
194,194,0.06565929242963509,1.3436293118965403,1,1,21.620764612177645
195,195,4.272597092606167,7.494225134841574,1,1,15.776417214005999
196,196,1.3856642997885005,4.723849562165132,1,1,13.64651736655944
197,197,1.7749996952300062,5.893607914751665,1,1,20.075054196314344
198,198,3.5976114191587714,9.486160323034623,1,1,14.594149601351937
199,199,7.883571651793758,0.0,1,N/A,19.72276967289836
200,200,2.2676225402560366,1.8757622425433007,1,1,14.22904806084493
201,201,1.7178070837756199,1.1140815088114409,1,1,23.172183856649585
202,202,6.828105857824552,5.496551234369406,1,1,20.510498775506903
203,203,1.8917070524107704,8.750000037480701,1,1,17.0431193154452
204,204,2.776724454085291,9.256263397035323,1,1,18.152751840206445
205,205,6.543631715164043,0.0,1,N/A,22.48803659969327
206,206,7.689013288079068,2.1162265879274056,1,1,14.26097464955157
207,207,1.9585750447611194,9.036827836707054,1,1,14.862794063312869
208,208,8.564657679350592,0.0,1,N/A,10.613093125624706
209,209,8.320232803261167,0.0,1,N/A,22.244617987181332
210,210,4.582044210698304,0.3341425570750045,1,1,7.7500545170747746
211,211,0.5935865702030785,0.7228215178002206,1,1,23.03097617326337
212,212,0.6803108542182268,5.391519241525918,1,1,10.929816941117409
213,213,7.325101450657254,4.258852963076816,1,1,19.560163371631795
214,214,8.137923039121254,3.795818286711733,1,1,15.229586006546448
215,215,9.39647663656954,4.265751210365906,1,1,14.971538570068638
216,216,6.036464287592703,8.594845330112932,1,1,18.49693758474525
217,217,1.2083778655629862,3.779444589745451,1,1,9.474041548239487
218,218,9.086207876818598,6.14124945252811,1,1,16.62371171397082
219,219,7.771625297581318,0.0,1,N/A,16.43603872904901
220,220,8.39657193410898,7.587121705514216,1,1,16.343397699506966
221,221,2.6204228223542336,5.980636666230783,1,1,16.168873076261974
222,222,9.744368742911234,0.0,1,N/A,22.182391614909083
223,223,0.0354423441769558,0.8396701144476792,1,1,5.285921734186744
224,224,2.4668472098252705,1.5093036750402233,1,1,19.27052516912177
225,225,0.9131674529614031,7.334758861189041,1,1,14.225092945460208
226,226,5.632654763768259,0.0,1,N/A,16.000599269511177
227,227,0.22348960424539155,4.5557631584939795,1,1,7.272946556322747
228,228,5.990736404676291,0.0,1,N/A,17.605752366125024
229,229,3.1620497165773176,7.136228139875177,1,1,16.72413339311177
230,230,1.8490073906658555,8.212602705825883,1,1,10.831805278470584
231,231,7.239292052510141,9.243101554900461,1,1,21.860251622755726
232,232,8.690442405045237,6.4721351625360395,1,1,15.710654014345733
233,233,2.7837057600949757,7.398815025281971,1,1,16.372104969809524
234,234,1.8833437775312445,6.51234399861993,1,1,22.999672618949447
235,235,0.4360979151072464,6.77690516074755,1,1,14.461491531986077
236,236,6.744089507489588,6.967667674715926,1,1,13.761706415917457
237,237,0.09431910827747747,2.9001560194820564,1,1,11.448214902672529
238,238,7.179383519053798,9.95598814332884,1,1,20.571826867389415
239,239,8.360969068630391,0.6893724693658698,1,1,14.22224580010151
240,240,0.5739810166602688,2.4467017212034547,1,1,21.152720493324242
241,241,1.3556763332787636,2.3527835018990517,1,1,17.820049304520538
242,242,3.6018026902737086,3.7366998902646986,1,1,7.346798682243642
243,243,1.170538916835926,6.981615726895452,1,1,12.619659672884877
244,244,7.832714971245533,5.131032954219088,1,1,13.334813386692051
245,245,3.474844762196997,0.0,1,N/A,18.574868471010433
246,246,6.1328105263901005,9.294818085381698,1,1,22.095115683779476
247,247,7.8621564365819445,8.274140029578485,1,1,17.83615617558228
248,248,1.2549510454640334,7.916536747867168,1,1,16.50381074390845
249,249,8.483329339124072,1.541773549254375,1,1,18.01859465016827
250,250,2.8111352411466695,8.8919682578704,1,1,23.698675854354086
251,251,2.3045612290185247,4.3855749000728075,1,1,8.621271366019858
252,252,9.256955473006034,6.343659180409386,1,1,16.35110532301076
253,253,7.502747871824235,4.0751587839862164,1,1,23.71938482152931
254,254,4.205118368896745,6.534180834946699,1,1,17.779083309893526
255,255,2.769523742327351,2.7335669433145213,1,1,15.858982854022292
256,256,5.746221040586406,3.1126170909134556,1,1,10.265714169345488
257,257,4.449408940098144,2.4076166297492465,1,1,6.998271697287809
258,258,2.703415003340721,0.1549801285605823,1,1,16.63325483463263
259,259,3.796566040798405,2.2620382012610527,1,1,11.93845808688129
260,260,3.6090111815388903,7.976134109834655,1,1,12.042860185772513
261,261,7.78142575655258,6.003248294538819,1,1,18.847216721807364
262,262,7.868468500556467,9.111391043296088,1,1,19.15843093033625
263,263,9.02095358330749,0.5261659984829181,1,1,21.497193912931134
264,264,3.361515197785857,0.9892311199144155,1,1,9.325989590918947
265,265,1.3701420456497448,1.639376028660059,1,1,9.247794548189189
266,266,5.802937547382557,9.739789829570585,1,1,23.63915847264081
267,267,2.9872153834285697,0.0,1,N/A,18.624750479086323
268,268,1.829551130370366,3.254348221768424,1,1,11.171004831460937
269,269,6.316748265359523,3.5377854392688777,1,1,14.401708228853279
270,270,7.083291723384201,4.445696113712913,1,1,14.471839627603835
271,271,4.696994913997652,0.0,1,N/A,14.544483413882066
272,272,5.602887274581233,6.7514117753322,1,1,21.53017540026833
273,273,6.933003492880721,0.08911499183281602,1,1,23.143062714464623
274,274,5.796165600880659,0.0,1,N/A,18.62513079095504
275,275,7.6319770449288935,8.94200907607885,1,1,23.51191026875555
276,276,2.3582862533971385,4.016392872269538,1,1,10.169286225745678
277,277,3.0900931529967313,5.287373477652247,1,1,22.914459793778803
278,278,1.2745936042287076,1.862472938024351,1,1,6.538566153325699
279,279,1.7968969729444306,4.046218223353151,1,1,7.543218692126901
280,280,0.7764555192641176,0.0,1,N/A,18.479428043750055
281,281,7.227262388738228,7.840320068363454,1,1,20.403535666628997
282,282,4.746955347830558,6.769921730471756,1,1,17.022717845244273
283,283,9.848726270351545,0.0,1,N/A,15.400330409108744
284,284,9.946800593359653,0.0,1,N/A,22.691461082444086
285,285,0.4394914511974901,0.0,1,N/A,11.371631622338569
286,286,4.961180909703784,4.9162441166541315,1,1,12.756268253265372
287,287,1.4394786533003656,6.438545144752554,1,1,12.838610941196869
288,288,5.112447806290904,0.0,1,N/A,15.558984799237418
289,289,4.802163486721245,1.3306928144718078,1,1,15.956931022080251
290,290,4.743896255347513,7.204505848119986,1,1,17.13091977206899
291,291,0.25343257917320283,0.0,1,N/A,10.729120675187284
292,292,9.825246977920933,0.0,1,N/A,12.391151517585278
293,293,9.508200760593022,8.495751855357195,1,1,19.568809685951365
294,294,8.51148970220035,8.859532119822003,1,1,23.924709219773575
295,295,1.0560945597660643,4.865131558701449,1,1,6.740572684168794
296,296,7.8710854452265036,6.899083906170448,1,1,16.089498677908992
297,297,8.117662583330521,0.0,1,N/A,10.414428496869961
298,298,0.85293509251812,5.616458818720767,1,1,14.952437165816368
299,299,9.940386338559579,2.560485956228481,1,1,20.620943846602238
300,300,1.6643152396686767,8.222677861316615,1,1,13.267048971174038
301,301,3.312549945657789,1.0418893183024591,1,1,23.313316006013384
302,302,2.164958874640217,0.0,1,N/A,12.395851315555449
303,303,2.5740662849144513,6.144790418559522,1,1,11.655554389992208
304,304,1.0157176081411778,0.09739547090493739,1,1,16.29141347370984
305,305,4.379536255626952,7.862235482789648,1,1,17.139577200110768
306,306,6.901005476668281,8.75430541374982,1,1,17.53335800003027
307,307,9.793022047075159,7.575713523853329,1,1,23.995621843155394
308,308,7.676381692083862,8.828966897804207,1,1,18.92533926655262
309,309,3.210444294945942,2.995106281012591,1,1,15.004843933910754
