,Job ID,Stage-1 Processing Time,Stage-2 Processing Time,Stage-1 Machines,Stage-2 Machines,Due Time
1,1,2.832122370291408,0.32616974572763247,1,1,7.489868358315126
2,2,0.02803369832112712,5.100791006779,1,1,12.042325814762723
3,3,3.7886813853084167,0.42801800912141585,1,1,10.990808980616418
4,4,4.813679919461493,7.357560042483606,1,1,23.78442994264552
5,5,6.721550359166029,8.444882871393734,1,1,16.838121056841764
6,6,9.525129247551833,8.148623350078227,1,1,18.294421156333794
7,7,9.865522925473758,9.455078776390804,1,1,21.765454648307678
8,8,5.100338590110484,0.0,1,N/A,13.763705251564428
9,9,1.79431553000856,9.405141185174879,1,1,13.796285571239356
10,10,3.64332630041432,4.520041238622192,1,1,16.546562668177728
11,11,5.949211011798791,6.6277340227535495,1,1,14.626620921408522
12,12,7.819541513597342,2.2994818582865695,1,1,11.656294044103692
13,13,5.203241687211016,2.0423795734714414,1,1,14.798811962203633
14,14,1.5493521136103217,1.9736966728261562,1,1,22.596788625912595
15,15,7.044215595181007,9.271326268401085,1,1,22.948850452184658
16,16,7.631242384694219,0.6057328840788845,1,1,17.916636883321203
17,17,0.6305010658940713,4.858937691896918,1,1,20.22145895753343
18,18,0.04472531841104299,1.6449473586172403,1,1,5.498322586492121
19,19,7.476770847295008,5.655325514979949,1,1,14.590617666483087
20,20,0.1511084867329826,5.78488415682598,1,1,22.108743945714878
21,21,1.4715998621333226,0.0,1,N/A,16.36339663129902
22,22,1.0301791263956939,9.11200628007146,1,1,15.78799680145388
23,23,1.6812331155289761,0.0,1,N/A,18.710650266872953
24,24,5.318566365042949,7.073462954472385,1,1,20.36540375486641
25,25,0.43702343983615055,7.797119486416472,1,1,21.135427495495108
26,26,2.962834118976648,7.835512712458712,1,1,21.126573742452003
27,27,2.6733630021583235,9.164607948421644,1,1,15.609080611419314
28,28,5.989985299741239,4.265920880746165,1,1,18.360934758956848
29,29,3.58973729846088,0.6326082033789937,1,1,16.795649991816745
30,30,1.3691660713100218,2.4486899939411435,1,1,6.820509935628177
31,31,5.592925125023669,7.789696787485749,1,1,16.57866149953304
32,32,1.096786026779415,0.41916851823041834,1,1,9.403932966995791
33,33,0.45284014613991674,1.9192582639000055,1,1,16.339630814108844
34,34,1.7998672168160124,1.507008249312013,1,1,5.538350230777469
35,35,0.7927770305559023,3.082745058311309,1,1,20.68816810010997
36,36,5.466353267553595,9.205363169737806,1,1,18.250048062987005
37,37,6.381269133527734,3.161429647766637,1,1,21.92739192945603
38,38,8.27316613721096,0.0,1,N/A,23.094501878513256
39,39,1.3090303884973042,8.216345440867473,1,1,13.278232392691027
40,40,5.846244203901633,0.2578775371853925,1,1,9.128965962525262
41,41,3.522357747792766,0.0,1,N/A,17.42520733366137
42,42,7.709678676627756,9.606241089035446,1,1,21.750900298762616
43,43,4.911481009416637,9.201197392904351,1,1,22.818071671199448
44,44,8.855790241516054,2.8352507466702894,1,1,18.238593990968972
45,45,3.987946627060559,0.0,1,N/A,8.464296024011428
46,46,0.2958866787367742,4.943420822743171,1,1,19.337651249302045
47,47,3.943151377932368,8.103774880151214,1,1,14.652999641513777
48,48,7.569477697731761,5.054875369611382,1,1,18.36541246756538
49,49,7.978242593970187,0.12229813700150305,1,1,12.021574005707894
50,50,0.7670044473239657,3.6514171717684696,1,1,9.238389886876112
51,51,9.397909332928297,0.10627338352244386,1,1,15.400786591706082
52,52,9.048496800134863,1.1488672112531273,1,1,16.339381635984573
53,53,9.153552003075676,5.078644567445066,1,1,16.33122345327981
54,54,3.0900073646695194,2.991853019877473,1,1,10.8063882924611
55,55,6.1179585282320375,2.49242407126377,1,1,11.96309302409681
56,56,7.500081363949354,6.386583447032519,1,1,16.374508860629707
57,57,6.718017011614687,4.198782372725046,1,1,19.028480284996146
58,58,9.496610773595867,9.108689236957913,1,1,19.653431012142832
59,59,2.4788838232526578,2.7163898114901786,1,1,15.260192478518821
60,60,2.0977463778349072,9.465391367271325,1,1,18.528810823477173
61,61,5.582090806493614,4.312630812875101,1,1,22.274288639813815
62,62,0.2725372682781624,2.0698698856888145,1,1,22.18040626571801
63,63,3.104733907188928,0.06183752065354153,1,1,4.88511618442903
64,64,1.5869668307461204,8.954692684862643,1,1,13.957904265916335
65,65,0.2883696463312213,8.801747387334135,1,1,18.022389654719717
66,66,8.500834297999543,7.933246814489054,1,1,17.674473903167108
67,67,9.989659126202103,4.0591902679456044,1,1,16.737605251920733
68,68,9.375104155663436,0.0,1,N/A,20.969773775854364
69,69,9.667333313009088,0.5662069439472273,1,1,23.156643700032973
70,70,3.955834873114974,4.547369849167029,1,1,23.266407434142806
71,71,8.997617813165657,8.66306373316262,1,1,19.216003083141086
72,72,3.750133944237567,3.8293177325941876,1,1,7.727551461995154
73,73,7.599035347506061,9.641628733402236,1,1,17.668615548573513
74,74,1.409571470592066,4.125247680952721,1,1,18.469194662134335
75,75,9.475913182609876,0.14490422104267653,1,1,22.904963120324048
76,76,9.7513900679605,1.1029684133664786,1,1,11.024449993717237
77,77,3.5152654791957727,1.7606759208950995,1,1,14.932345737658736
78,78,8.688987850363773,0.0,1,N/A,18.482188903695334
79,79,1.9171562218004168,9.736427737347611,1,1,12.288048607825457
80,80,9.579711639741495,3.8235498938800907,1,1,17.151970161171484
81,81,9.732250906677775,7.351004902086205,1,1,19.889306551587335
82,82,0.1419991626936401,5.6302568061045735,1,1,13.371610667607616
83,83,1.8474296945609958,0.0,1,N/A,22.452250164898093
84,84,4.872763990614121,9.846198320343692,1,1,23.249253742889415
85,85,8.521178965678116,7.168996685110493,1,1,16.586824272458145
86,86,9.50454638681264,6.603769832613614,1,1,21.836497612018665
87,87,4.032565250968233,3.026800373624675,1,1,7.580855639343715
88,88,6.922822028347312,0.028317368722731162,1,1,14.943604903728682
89,89,1.435454310423535,8.087009820047204,1,1,10.011219454935784
90,90,8.109473829802647,3.0151177167039487,1,1,14.073920443089348
91,91,9.860484075186832,9.511602443124097,1,1,23.949760178877305
92,92,9.465917603257934,2.7054180181141287,1,1,15.343338997688019
93,93,9.076148874331455,5.176252951473709,1,1,16.971130804655157
94,94,0.7011284723711575,6.969190812045541,1,1,15.635835818106461
95,95,4.491486713605873,6.60920623464028,1,1,12.15484278035346
96,96,5.115388611591597,7.06281491563133,1,1,16.877089965265313
97,97,1.5442009666089451,7.33095705013281,1,1,17.250579497073733
98,98,3.317677628642776,1.4276068447473533,1,1,4.756959421048115
99,99,1.290987901745374,7.970843052107615,1,1,17.55474662570462
100,100,3.2590432186313043,0.0,1,N/A,18.913755653355075
101,101,9.745385371502634,7.930132511765947,1,1,22.294579552155543
102,102,9.9750281081783,0.0,1,N/A,23.132070332628405
103,103,0.7261035010361294,4.992791655169385,1,1,10.027482130711675
104,104,9.476563576525002,6.024435861354095,1,1,15.894460496181392
105,105,7.694433763186133,8.82151210843155,1,1,21.20708482377005
106,106,4.048991666815231,0.0,1,N/A,14.813726680262157
107,107,9.596735879535935,8.69911993162763,1,1,23.60811405074179
108,108,2.8383389295398587,4.735016689354637,1,1,7.8267499731321815
109,109,3.274520585934807,0.0,1,N/A,21.297727542102656
110,110,3.5955231150109346,5.614436270259865,1,1,21.637026426350758
111,111,4.877935366422443,7.689440547802697,1,1,13.388208799997832
112,112,3.5726804672929213,2.594395588137044,1,1,8.650311838703885
113,113,5.482520325495327,6.17613128455284,1,1,21.74360000012574
114,114,0.8215868542697258,6.054379395302628,1,1,14.426829198331019
115,115,3.8540163639711977,4.082586889960565,1,1,11.886741485685235
116,116,8.261302336400178,5.2578795575126955,1,1,18.754316491496787
117,117,1.6080432794096877,0.30713483131976194,1,1,11.111737539668082
118,118,5.052089650988423,4.760789854666815,1,1,10.132974170678011
119,119,5.243571167649701,0.15908127803798466,1,1,14.92146527997578
120,120,8.09917684124584,3.6683827876763395,1,1,13.49307844083737
121,121,5.847576038954353,0.1973382299839055,1,1,20.347976218053567
122,122,8.712378072651996,0.01115568795741484,1,1,15.066388510056688
123,123,5.8078287659662555,0.0,1,N/A,13.936127180352683
124,124,2.0950591221483164,0.0,1,N/A,19.990721624827533
125,125,2.24704153050562,0.5959075387672763,1,1,14.892223976819725
126,126,9.26831674933401,0.0,1,N/A,11.45362208467638
127,127,6.688070439230609,2.954966221990775,1,1,17.096622511822325
128,128,7.068049719444382,3.1244342086240815,1,1,12.92396739232217
129,129,6.340332721236338,0.0,1,N/A,21.053285836497537
130,130,7.523788131076564,9.996006876786737,1,1,22.750137258636787
131,131,3.9009274214874576,9.567451132911888,1,1,23.89542247135073
132,132,8.170061120438287,0.0,1,N/A,23.82942636006357
133,133,2.093325863917582,8.095442751910038,1,1,18.987321898086996
134,134,8.895623738316198,8.285865034082079,1,1,18.76988732645074
135,135,2.8047928148066537,0.0,1,N/A,22.81381159895963
136,136,9.804243785253101,4.546371370681276,1,1,22.977916964198414
137,137,8.88351285188606,3.463418772978618,1,1,22.508921341702955
138,138,4.754246740906364,3.914790079447772,1,1,20.063770839127223
139,139,2.440530285540501,3.5770056710814213,1,1,19.71892151101091
140,140,2.366425035594275,0.0,1,N/A,15.311911910757205
141,141,7.624497915176316,0.0,1,N/A,15.761098565771697
142,142,6.830944968467869,0.0,1,N/A,18.65918466112683
143,143,9.655275105725655,7.659554971653084,1,1,19.38213210038333
144,144,0.05396193909981584,0.27128711784248805,1,1,7.280304068602211
145,145,8.426635393964679,0.6853725986956427,1,1,10.063238089034295
146,146,3.4824060901025122,0.0,1,N/A,13.549569473994659
147,147,3.591917943860029,0.0,1,N/A,19.075220947986104
148,148,8.590487107155969,8.434606726943755,1,1,23.077784538265686
149,149,3.1014220589774255,7.181951524864523,1,1,22.03195075693875
150,150,9.82595047037986,6.82110504973979,1,1,20.554554377529385
151,151,9.936880976011986,1.2040239198978242,1,1,13.513092429071031
152,152,5.869478383490694,1.3215327530675613,1,1,18.476845409166135
153,153,9.208199689377404,1.2922041297744424,1,1,11.561027925558983
154,154,2.7091792307002183,7.393305029405234,1,1,18.875829486964655
155,155,3.100155696147117,2.3146264243650547,1,1,15.324795915520518
156,156,6.654788599285134,8.268550485275949,1,1,18.521242842719076
157,157,1.8097877960345898,7.420974077745527,1,1,21.54252121661994
158,158,0.12522966162644478,0.060958080875397336,1,1,21.676974491153665
159,159,9.710663438453436,3.4313592434574822,1,1,17.289430109698017
160,160,5.606302636273151,0.0,1,N/A,16.677086762990882
161,161,0.8671754785963404,4.183168285963388,1,1,16.23058728736035
162,162,6.759339144127719,8.268288236874294,1,1,18.873513660439365
163,163,1.895481619334286,1.0134719044157325,1,1,11.20377018855876
164,164,5.7786311692878245,6.128426014956105,1,1,23.79486953027136
165,165,9.494927466286056,7.302747069105408,1,1,17.1289204874885
166,166,4.981586781886518,1.6935865552438678,1,1,15.271614609627633
167,167,6.020968397708732,2.106054088703495,1,1,17.25488232345569
168,168,6.446524631993493,0.9297955541596581,1,1,8.802580767847827
169,169,4.728725820175628,1.8548800105389618,1,1,18.23437356708524
170,170,8.324490798370315,2.4397151868526312,1,1,20.560262201901033
171,171,2.34058166151328,9.445020861399428,1,1,14.846789004947471
172,172,6.680652751790862,9.204854501528397,1,1,18.427790071630838
173,173,6.947452754772159,6.20633443650199,1,1,15.370627981459085
174,174,1.8256912182041796,7.3866972901420915,1,1,11.939877005143194
175,175,6.554507469071627,6.189030335005407,1,1,17.499187947180566
176,176,5.2007431905988755,7.1583935052451375,1,1,12.445987589553226
177,177,9.813155737689993,7.648503504431696,1,1,19.194586895050413
178,178,9.187582364702413,0.0,1,N/A,20.243182345363934
179,179,9.493656490595457,2.6605964972330733,1,1,21.89468039094878
180,180,7.857679256217355,2.0271659943455624,1,1,10.336566778504235
181,181,9.749296084618935,3.719513223678035,1,1,21.716869636991056
182,182,6.4243073678977325,3.5661624291783864,1,1,16.242888898475364
183,183,3.9421591811320256,0.0,1,N/A,22.506067064055706
184,184,7.51575398942356,2.848261835784225,1,1,10.861045879404793
185,185,1.5775645801998694,1.9665839386202322,1,1,11.799438508642103
186,186,0.7943135201033347,8.314648353302452,1,1,21.9538261943541
187,187,0.7922257661000986,2.5708534996997834,1,1,4.3008498149235255
188,188,9.777186563054821,0.01250875326132328,1,1,18.06330266179389
189,189,9.045313003044859,0.0,1,N/A,21.43585216117679
190,190,4.432378823315036,5.96428120706067,1,1,14.611113864253703
191,191,9.330626472078775,0.0,1,N/A,20.57606119256332
192,192,3.9479564092276975,5.752445398696557,1,1,13.69355839414471
193,193,1.576027409696792,6.215152710222709,1,1,8.094716718481237
194,194,9.615209126364913,0.0,1,N/A,22.90472571986169
195,195,5.354396639944311,9.0852253797608,1,1,23.780096771522885
196,196,7.575207590150201,0.0,1,N/A,16.240623951239606
197,197,2.455164537910962,6.778430980331205,1,1,19.820907411066926
198,198,1.2016737266609767,2.552225488896087,1,1,19.70586839803618
199,199,9.82790878620058,2.555035049414116,1,1,20.251177441478397
200,200,5.810079511102467,2.4363019116980213,1,1,11.146711501927536
201,201,0.4723498814398541,3.2948970550824908,1,1,21.861900163868494
202,202,4.9446879253541764,2.732814183058665,1,1,16.335584171068383
203,203,9.132260973810052,0.0,1,N/A,21.72913401193845
204,204,1.534840682099352,2.078918520202657,1,1,8.878326628154657
205,205,3.898765949662446,9.269376375177945,1,1,17.33157452102257
206,206,6.777318264908435,5.465122412344163,1,1,21.233918487274142
207,207,8.705285725533527,3.227166632424664,1,1,22.214693474463807
208,208,1.3047597353115836,9.967758608533986,1,1,17.33343891829233
209,209,5.796305472755082,0.0,1,N/A,22.11041669205096
210,210,1.6890289292981053,0.0,1,N/A,21.11878037265744
211,211,2.5558100148067284,0.0,1,N/A,22.791848082648624
212,212,2.8949736018903627,4.671017880478688,1,1,20.380089853122083
213,213,4.498126862913956,4.712354656499214,1,1,20.942475456692573
214,214,4.095573446560628,0.0,1,N/A,20.163278548065307
215,215,0.7816076532957283,1.8096427613187072,1,1,16.79162182389435
216,216,8.07134327658052,2.6894107511806356,1,1,12.732350521739365
217,217,2.2355160807824923,8.184089584045946,1,1,15.280346100750009
218,218,4.0625430063362336,2.209153400057635,1,1,22.65277975271899
219,219,4.992016944351975,0.0,1,N/A,22.73492866079195
220,220,5.105747443226937,0.8066964734114368,1,1,13.026735037304817
221,221,2.1080788782005477,0.0,1,N/A,16.983363151121765
222,222,9.678688186320421,2.2993336445308787,1,1,21.761890499097035
223,223,0.43275978737446485,2.267992052391048,1,1,14.87911782117442
224,224,4.135649409337838,0.7517968967938171,1,1,12.334686030493678
225,225,8.342329801598835,1.374947632201483,1,1,15.095069815033881
226,226,7.691009638033619,1.0682850342986239,1,1,21.51648045074404
227,227,0.9524319837685657,8.87575349852639,1,1,21.98783369903598
228,228,6.088497011867881,9.8974741851379,1,1,20.87171769712439
229,229,8.09337719625065,3.933739631057196,1,1,12.419503434678328
230,230,4.62599301414968,7.3705850870674166,1,1,21.01341742506621
231,231,8.08597279724559,6.895367510177451,1,1,22.10113825543298
232,232,3.9780845515075915,1.1352559420097685,1,1,16.441591065414855
233,233,5.0705075847822965,2.5893782068542173,1,1,23.295227364960535
234,234,7.436842302997217,0.026181176812710705,1,1,18.09234590590902
235,235,8.089486080694165,4.679573902470685,1,1,17.736320574979565
236,236,7.408452713267603,0.7858769404730315,1,1,15.821230335756646
237,237,5.4166752740362565,3.437069498259193,1,1,16.83005371145223
238,238,3.302577802810196,1.3608315403657945,1,1,9.37238036718172
239,239,3.783098268416026,0.0,1,N/A,9.8221653142342
240,240,5.866444453612136,8.105048562266253,1,1,18.207465021894336
241,241,7.150920609260622,3.168528396276037,1,1,10.727839798856655
242,242,8.981322478370284,6.963146402054363,1,1,16.663739812222182
243,243,7.727353435900826,1.9335473883963095,1,1,9.724758190495793
244,244,3.085512242830195,0.8700706797983715,1,1,17.629170845161497
245,245,0.9528024534436685,9.548100477171523,1,1,18.672755797991375
246,246,9.048591363411843,5.653353311319965,1,1,23.1460400546951
247,247,2.721642590468294,7.928238253833289,1,1,23.701606435688472
248,248,2.539929990392966,5.582569515635179,1,1,17.656092417201002
249,249,9.319535849692604,8.926395092154557,1,1,22.705574950744246
250,250,3.3915437743988774,6.8571828186972805,1,1,14.972197816421916
251,251,4.375842211649516,1.4587387572762278,1,1,9.737359891088438
252,252,9.052378603750665,0.7179448995864257,1,1,14.196809837514728
253,253,6.864399102814875,0.0,1,N/A,16.903184953140872
254,254,3.410141786014187,2.450352330895982,1,1,19.44834758610775
255,255,5.716300357254626,9.660491264048813,1,1,19.158756569323817
256,256,6.419264638224346,0.0,1,N/A,20.07058252845433
257,257,5.302974013255797,2.875638229678261,1,1,18.810651574154292
258,258,3.776271051667578,2.6909713078005937,1,1,17.561548193645507
259,259,7.881450987096033,9.07748854803266,1,1,22.912724465339355
260,260,4.141750655124782,7.101431343852866,1,1,18.75471400434055
261,261,5.672021836587049,4.732613780224386,1,1,14.097765473419553
262,262,2.70254710104995,8.951583770155931,1,1,16.165781403580276
263,263,2.6918434186429243,3.5051788262412953,1,1,10.164306879213218
264,264,2.7323048570478448,6.012016715175185,1,1,22.979819309189665
265,265,7.27629095570863,0.0,1,N/A,20.49905375407944
266,266,0.24561773784324448,2.1729417080517264,1,1,4.038210798528023
267,267,1.234261924794643,0.6724462444415491,1,1,19.527448947057152
268,268,4.945757127982418,0.6211631006718044,1,1,18.34938434611402
269,269,6.43837282280659,2.508835343086133,1,1,19.763592312204963
270,270,3.539272142334464,8.064668769134054,1,1,20.06565603689357
271,271,3.1950076307577238,9.567594794615346,1,1,19.725814254722206
272,272,3.1727347160900097,6.659465020759791,1,1,18.381880155349698
273,273,1.5809143610773402,6.161813785233888,1,1,9.1195784468057
274,274,2.2900250411983847,4.628095917342645,1,1,11.328302789031797
275,275,0.2159440883194763,9.058442449162738,1,1,23.229081048469762
276,276,4.23630630460878,2.9854764262816555,1,1,23.976923109278072
277,277,9.813787986793761,2.874818589557959,1,1,19.66885953057416
278,278,0.3926703037538637,0.0,1,N/A,21.27518161682636
279,279,0.5416480207195506,4.129210110712521,1,1,9.84911380211129
280,280,4.210822541740404,4.3990995453238035,1,1,12.814891034313352
281,281,5.989599730054906,0.0,1,N/A,16.601531343061012
282,282,7.163584899010904,7.498945809134727,1,1,19.3646271721182
283,283,9.620942305246647,3.0678890865402564,1,1,13.156226029415539
284,284,3.5317068375645544,2.3768988008303795,1,1,12.52047960474208
285,285,3.2891625503749777,9.926148554017063,1,1,16.9017787500871
286,286,0.5834445593844917,4.563924358248627,1,1,17.897372454911594
287,287,5.253460792921941,2.4782601437320038,1,1,21.70954861398669
288,288,5.293571667229364,4.523173982979203,1,1,12.946620481032767
289,289,2.460756866413125,2.4956113320489424,1,1,5.8455401949144425
290,290,6.964624085425872,0.3026352983143865,1,1,12.684907345536969
291,291,3.7624058316258435,2.287657543599627,1,1,7.734827052071135
292,292,8.431190824187885,4.575368550115546,1,1,17.152920464440484
293,293,3.1463383474636264,6.3182394123114065,1,1,19.662302377140023
294,294,1.2471566039119064,9.73495810352648,1,1,19.65051134420881
295,295,2.0976317242026044,0.0,1,N/A,18.861461575228432
296,296,7.556195748461052,5.1015285171537705,1,1,23.245092809455095
297,297,7.409087461461982,9.238169457226851,1,1,17.028973875850433
298,298,5.245237160190457,7.2226246642695715,1,1,12.852187171645356
299,299,2.623942190122308,3.139071786563623,1,1,8.900118431881436
300,300,7.293029060062324,7.3450183872237185,1,1,20.478986264129393
301,301,3.380435529839647,3.79872659632556,1,1,23.15009790395343
302,302,8.404027929759856,3.088613196636283,1,1,19.14304926724649
303,303,1.7087679393077893,0.0,1,N/A,16.890273901571277
304,304,6.295685275793705,8.19300436918525,1,1,20.65168120943613
305,305,5.771392354728949,6.480618794959745,1,1,21.704878269959682
306,306,7.578730191965313,0.246903495274563,1,1,21.821605136614874
307,307,8.300869105488415,0.0,1,N/A,22.039479415224555
308,308,2.916800154339514,0.0,1,N/A,22.085469771277907
