,Job ID,Stage-1 Processing Time,Stage-2 Processing Time,Stage-1 Machines,Stage-2 Machines,Due Time
1,1,7.5533534376802915,0.0,1,N/A,20.802086695144943
2,2,6.189918917491736,2.7611168212685975,1,1,14.683885048698912
3,3,8.403510216638193,0.0,1,N/A,16.4842469445064
4,4,5.274664163907396,2.928113679188926,1,1,12.55504736130119
5,5,4.556699804090181,5.105746933878268,1,1,15.462374203871505
6,6,8.72146495348161,2.573204637565456,1,1,19.01476895976976
7,7,3.7167521137632997,9.138163423860938,1,1,22.374805627749907
8,8,1.841373462567848,2.453435557362397,1,1,16.195657896705903
9,9,1.231061264754365,2.0241266375223455,1,1,17.660335463167243
10,10,6.946555146322951,0.0,1,N/A,7.734670737294243
11,11,2.4287035308216334,3.242176146095189,1,1,23.259722670101404
12,12,8.885686376085154,3.8849873055338824,1,1,16.895391934577244
13,13,6.341814357252497,6.7553271507239,1,1,16.21733734155642
14,14,9.7090895721659,4.315639266092921,1,1,22.845784950867497
15,15,6.654659106822241,7.197839366135572,1,1,18.27151014493326
16,16,9.623370731338278,2.2511967647594666,1,1,23.587679152036834
17,17,6.3596426741569765,8.716971277251412,1,1,23.619127835828266
18,18,9.786660185274824,1.3708803794252333,1,1,20.769322073471972
19,19,5.5460393404234605,1.937904420617963,1,1,10.60033514704793
20,20,5.851850775190549,4.975531474066861,1,1,12.164688582693309
21,21,4.390707995736284,8.73905148015223,1,1,22.72788825781559
22,22,1.1093074671768322,2.1045339494678448,1,1,23.777984950042153
23,23,2.7087306450893998,0.0,1,N/A,22.917788627804644
24,24,0.23659606434840108,0.0,1,N/A,21.462930914694727
25,25,1.9523385418297223,6.0545553644221615,1,1,14.292811252085706
26,26,2.7137494064529544,7.172886267652903,1,1,14.137166126555698
27,27,0.5631159379040618,0.0,1,N/A,13.638015034144074
28,28,4.96150255552293,1.092834284061741,1,1,19.30198111535465
29,29,5.253724474829802,3.838153959200813,1,1,21.321759862541917
30,30,2.7632508793949784,9.631543811158586,1,1,20.821853334071655
31,31,2.802359064724864,5.412345917887359,1,1,18.253566202402787
32,32,5.938921482025222,2.262513954874701,1,1,18.74892042704878
33,33,9.268890904972912,1.3378249734057768,1,1,10.737788402043119
34,34,8.145079326258227,0.0,1,N/A,12.985265758068612
35,35,9.521803942396227,3.6776757437201777,1,1,19.71597637020447
36,36,6.395207594524418,6.159150010885809,1,1,12.769188476354655
37,37,3.546643104784799,0.0,1,N/A,15.21454673503508
38,38,8.206961210611942,4.614349741810884,1,1,20.19772332510606
39,39,5.08858855367725,3.5837701668834443,1,1,11.072556645185426
40,40,8.596420571521431,8.29417956283797,1,1,22.846222155848256
41,41,8.0623834089937,0.050026492256783905,1,1,17.078795622681557
42,42,6.4644165808117995,9.096477688013874,1,1,21.41231499194548
43,43,5.3616500948003765,7.831689836357908,1,1,18.685415205234783
44,44,2.3077193143859587,2.7103156221673363,1,1,7.047103258507189
45,45,5.154161889348259,8.386351494893912,1,1,22.645463729588275
46,46,7.2314198619643655,7.579513868638256,1,1,15.90674900495831
47,47,4.256661496167665,0.0,1,N/A,20.212346166871896
48,48,1.281324727293921,2.4693922732751905,1,1,4.959265732641123
49,49,9.455516240961467,9.832536130496631,1,1,19.904129675386617
50,50,7.925737318994965,2.9656151627977447,1,1,21.25187370658273
51,51,2.0894162551060838,9.479840099321123,1,1,21.741401222330353
52,52,0.24330422698256027,3.3938571605263834,1,1,19.075128580812194
53,53,8.634541283593828,3.363306625613939,1,1,14.067159682237717
54,54,0.34783745748877326,6.213805184065238,1,1,20.49325465750941
55,55,1.5717676837245942,9.962667704799799,1,1,17.12107498430765
56,56,6.321737090240211,2.056681295267081,1,1,15.228370245339976
57,57,7.559681400609987,0.0,1,N/A,14.035856572480899
58,58,3.074818786672094,0.0,1,N/A,8.78459059249645
59,59,3.2505985451979713,7.23768160484251,1,1,14.787573143256513
60,60,2.812073208793724,0.0,1,N/A,22.80653741506178
61,61,7.820420291430113,9.487792064269227,1,1,19.269414235507504
62,62,1.2343791332680576,1.832961793576846,1,1,5.842144161138087
63,63,0.7133920878806144,3.4827588718236435,1,1,4.210093927607482
64,64,1.90750599583417,7.3070199858956055,1,1,10.752996160012197
65,65,9.841033228348714,0.5805189288474977,1,1,19.646537292706785
66,66,5.867019527820506,4.80339897508105,1,1,23.82276472070201
67,67,0.30320913574176545,0.6569158741439796,1,1,8.463320049745285
68,68,2.7403751834349177,6.933459751896337,1,1,15.52065044870604
69,69,5.3336224274471355,6.2380735003712795,1,1,14.542132541797805
70,70,2.80944792048212,7.003278773720593,1,1,23.225013585407915
71,71,7.7673161707909895,5.204065767135546,1,1,13.294564423879569
72,72,2.7528718109077577,7.657160603292484,1,1,14.545346339635241
73,73,9.933549649188478,4.425801019218792,1,1,22.257729516947236
74,74,9.55452479108309,3.0195863245836687,1,1,13.522260491668556
75,75,7.168436979246841,0.0,1,N/A,11.720666484662026
76,76,6.40964110483655,2.5592594224721434,1,1,10.528095543865614
77,77,2.3962443775227795,0.0,1,N/A,7.473094219433095
78,78,1.0142621319448564,0.6176600027888524,1,1,23.687226332396293
79,79,8.528538066965686,0.0,1,N/A,17.414395117672573
80,80,8.020609777221617,7.627166826066368,1,1,18.75380155428612
81,81,4.587910637432104,1.043157589808833,1,1,22.388664842800743
82,82,1.5502169855414716,5.827858990318596,1,1,9.881679802417542
83,83,8.500015715770695,3.7903853933371434,1,1,16.463709442367083
84,84,1.1869679902063068,5.394822152974681,1,1,8.332727943287955
85,85,1.331851380754776,7.629457840898458,1,1,15.329129052897592
86,86,5.3437403860096735,4.436837194228599,1,1,20.022781880166285
87,87,2.97723923983942,6.003915589236648,1,1,11.923140630513736
88,88,3.063794499968906,4.319492539137025,1,1,12.423338259589162
89,89,1.280978281048486,0.0,1,N/A,10.081622224226631
90,90,9.933076764240717,0.0,1,N/A,17.33591235621154
91,91,2.772075091746985,3.9171548480994978,1,1,20.745691331810004
92,92,0.343725729877703,8.127896893886701,1,1,21.332949915813916
93,93,9.67421981482844,2.6412087187525213,1,1,14.6266094828663
94,94,0.2831156131309642,0.0,1,N/A,23.317675611556805
95,95,1.2960231198524619,1.4900078444636156,1,1,8.132260653398866
96,96,9.450271254605504,0.0,1,N/A,22.32472957255241
97,97,6.841649752723287,6.209486518757467,1,1,18.31579366490114
98,98,3.973736764148491,4.136211789510751,1,1,13.046354988175928
99,99,2.3565747208586876,5.902514766680253,1,1,15.362480776475927
100,100,3.524159907172013,9.338034314621119,1,1,21.84183408678623
101,101,0.49876265703272304,2.133997025321226,1,1,18.83487946289986
102,102,6.409085880484502,7.630690860423723,1,1,22.95986710491426
103,103,2.8074769402145296,4.740713568925042,1,1,17.702754417226963
104,104,7.958335007176121,9.583936828267078,1,1,17.90884556805745
105,105,0.46758416465576325,1.5310392561826447,1,1,8.937707150277612
106,106,1.0125136423648362,4.439686469358021,1,1,21.634209225644494
107,107,4.054668200192943,8.530313087282934,1,1,18.571278749341932
108,108,4.709578448333158,1.7397788602359088,1,1,21.438777648742864
109,109,2.573526513731953,0.0,1,N/A,23.63078170141977
110,110,6.131542203137011,8.408646564526457,1,1,22.70426214363014
111,111,4.617567220855793,0.0,1,N/A,8.880621314184532
112,112,5.717367581559431,6.768171795395571,1,1,13.3121499819231
113,113,1.728769849262144,8.821857830036631,1,1,16.000531225725414
114,114,6.711781696556764,6.92686841550577,1,1,23.101813415813996
115,115,7.690352179474652,7.53209814329097,1,1,19.485830882628534
116,116,1.2691940487186826,1.0384875792096804,1,1,23.008140249528164
117,117,0.29578201603473797,1.2545049940584108,1,1,5.989451416934078
118,118,8.966278718844467,0.48283046692883747,1,1,18.908698685567458
119,119,0.8056842894848992,7.718909006892707,1,1,10.031714553153813
120,120,7.287805087841938,5.098681479770177,1,1,21.900778476681097
121,121,8.105963450121639,0.0,1,N/A,14.511003140853896
122,122,4.227818860672608,6.371934627588271,1,1,15.903365898752057
123,123,0.21434549866523267,1.807699237158854,1,1,11.520283314796284
124,124,6.134843236632907,0.0,1,N/A,20.48432642200495
125,125,1.9052009496490896,0.0,1,N/A,18.172380345314824
126,126,0.6181659358344382,4.431557022127728,1,1,9.27502575605526
127,127,1.6871972897957987,2.0706822723224705,1,1,16.70308958032046
128,128,7.996172943839754,8.262806575967712,1,1,22.10780147206029
129,129,2.1489259623207477,0.0,1,N/A,13.290287684556883
130,130,3.0167373735071354,0.0,1,N/A,18.605928007860346
131,131,7.590045411451665,6.080918751029577,1,1,17.85917479959323
132,132,1.323352338132311,0.2783051924369817,1,1,13.604589330059536
133,133,9.45969373275416,3.172573847715825,1,1,20.335409432392886
134,134,2.98008686782088,0.4930259191145958,1,1,5.842677178230309
135,135,2.322884358223903,0.0,1,N/A,13.005647850816686
136,136,8.370350088468573,9.261829436955574,1,1,23.192210547312513
137,137,6.005691859585577,6.646326128564192,1,1,16.345107032226768
138,138,0.5122488272295977,2.280869887832633,1,1,11.50436877855913
139,139,4.206165586117664,9.724479675598152,1,1,23.770892676164706
140,140,3.394550088184208,8.505142701739466,1,1,13.628786145036266
141,141,4.490231072553965,9.508366510730006,1,1,17.804461611039166
142,142,9.363987307817082,5.494008020657352,1,1,18.872832986949817
143,143,1.9354142480465053,9.84266733122003,1,1,21.595416831054337
144,144,0.027050527421417225,3.359033526350225,1,1,5.534524975053655
145,145,4.134725819356497,0.8948530754185324,1,1,10.800907883394387
146,146,0.0993582549430061,8.988923142546257,1,1,14.367719487358876
147,147,6.985072771597735,0.0,1,N/A,15.852477592691347
148,148,8.848495076495325,0.37858463368871775,1,1,10.354338369727735
149,149,9.685734268788858,0.0,1,N/A,13.719386386633328
150,150,8.698013069103478,7.936288191342449,1,1,19.460889062930377
151,151,2.8817655895915637,5.496071021427432,1,1,18.399683477705175
152,152,8.832512917713451,3.479062690614776,1,1,23.25924227491037
153,153,2.496922633353197,6.228996800013764,1,1,19.322321155342532
154,154,6.952699801977747,4.662168495766669,1,1,14.334960251693
155,155,8.544208576381267,4.67358211447189,1,1,18.221629393113737
156,156,6.8053184415980255,0.6634434207158713,1,1,10.32699489187579
157,157,7.51414766783407,8.673513374314524,1,1,20.17265160627064
158,158,7.810396557519904,8.616514452515354,1,1,18.596558930365997
159,159,0.8483295327156348,0.0,1,N/A,23.082896575552823
160,160,8.464577517889447,0.0,1,N/A,18.78774462424464
161,161,0.3976491784225411,8.927232340262869,1,1,11.602073349829855
162,162,8.958070232082507,1.579092011440737,1,1,20.381268166558577
163,163,8.366591164272721,2.317979310591115,1,1,11.950152788651373
164,164,1.8948675607092258,3.101831191074045,1,1,7.7830616658038725
165,165,1.0749478867359086,0.0,1,N/A,20.09129192891013
166,166,8.404798182627637,4.382679580555875,1,1,19.86573279966771
167,167,2.685912915880071,4.450121284721317,1,1,11.127222048024334
168,168,3.0967129883184352,5.177422308727076,1,1,10.33259204463503
169,169,3.6605892849665747,8.279036922802375,1,1,18.232791288006844
170,170,5.837783104395084,0.5697526816748955,1,1,7.8716700211524495
171,171,1.1831987587222736,6.206810673244966,1,1,15.973937072428907
172,172,2.721128479916862,7.471343321609922,1,1,14.047356787262586
173,173,0.35665018511702895,7.959039282334562,1,1,10.703786286300677
174,174,0.7772449788760782,0.0,1,N/A,7.239872302793222
175,175,2.279084617034768,5.104303459696206,1,1,15.190760740500348
176,176,3.757305575962638,2.1410562876091097,1,1,21.14863199017232
177,177,4.785397334265471,9.483495420111979,1,1,21.109628768715556
178,178,7.02284279052683,7.976006998677681,1,1,20.031241861399266
179,179,0.0496796972974578,8.425144629657758,1,1,17.824399702599525
180,180,7.922833171554462,5.23740627356613,1,1,17.758288606470146
181,181,3.7300083190223585,0.0,1,N/A,15.732870869582104
182,182,5.561863565264231,0.08557585303856419,1,1,9.425929879434445
183,183,0.6026827401899282,4.706648341841866,1,1,9.536590777579216
184,184,8.587683219389216,0.0,1,N/A,20.915382953080794
185,185,2.237556447939675,3.811415679935747,1,1,14.794271882067548
186,186,5.25533332557358,1.847226994459189,1,1,23.46395447235846
187,187,3.166418288800176,2.94960097358325,1,1,6.714488121648447
188,188,8.908182047196224,3.3410252820040887,1,1,19.70108447754866
189,189,3.34276246055535,0.0,1,N/A,16.816263041197146
190,190,7.034495258528475,7.137563006135995,1,1,15.692238434259139
191,191,1.9106527330357514,8.268145643449198,1,1,14.384980129608419
192,192,1.224172634354328,4.458926832057691,1,1,14.574031119934812
193,193,3.9606956707600585,6.352956334686217,1,1,19.847197680424273
194,194,4.006284091559578,0.0,1,N/A,12.0012838903205
195,195,9.922196539115314,8.840020048276372,1,1,20.73643423682168
196,196,6.784187485836881,3.5192602948673635,1,1,11.672426528277922
197,197,7.29831567140854,0.31215655951450927,1,1,7.6636377750025595
198,198,6.293068648831365,5.581769799004206,1,1,17.314341417714477
199,199,6.448779573506673,0.0,1,N/A,20.412881571585228
200,200,9.13628911740677,0.23511812395923037,1,1,11.98053028485645
201,201,4.793589874712952,4.214942330742074,1,1,17.747448420227336
202,202,7.4942159876545125,0.0,1,N/A,18.474498093743904
203,203,6.476574602596854,0.6369310059698363,1,1,23.236804521267576
204,204,3.780451564602391,7.632275859772946,1,1,21.062932765171283
205,205,9.663717747034866,0.4505388059308768,1,1,18.316324413544713
206,206,0.1609866527893078,0.0,1,N/A,3.768351640255653
207,207,8.12072494531866,5.539239376686575,1,1,17.009020907167777
208,208,2.7283449742411046,5.384103579970811,1,1,19.927157853043422
209,209,2.1226621625779996,6.240788624420234,1,1,10.18775177087647
210,210,4.590230829877385,4.155515349749352,1,1,17.655631638715214
211,211,8.208226228692816,0.0,1,N/A,23.523431279382457
212,212,5.5688398773794745,0.0,1,N/A,14.121819945103706
213,213,6.268591658946374,0.18876231101392915,1,1,20.141184588561337
214,214,5.982290861487214,5.7738345182673125,1,1,14.717331424324145
215,215,8.452698604155826,0.0,1,N/A,21.60741669986146
216,216,0.341195334654284,7.236306220329311,1,1,17.534451421609333
217,217,4.910223489183947,5.622976232171698,1,1,15.102866203928704
218,218,0.42032620072256943,3.41152861252347,1,1,16.64902471336108
219,219,6.187688036040795,3.905324884993399,1,1,21.957460986312032
220,220,1.0272902705156584,0.3523921014575948,1,1,21.393655485045173
221,221,7.847824744250911,0.0,1,N/A,23.378647567830704
222,222,3.7492494372111294,0.0,1,N/A,21.455623118827116
223,223,2.4968684713117906,3.0792740981274127,1,1,13.577545206378712
224,224,0.19155156677534868,6.782424856466706,1,1,15.882999971605862
225,225,4.573045114563808,6.275785054439922,1,1,11.776495586309558
226,226,6.164341774787595,0.7296030179058222,1,1,21.572547525958456
227,227,3.9367094570236425,8.049045608382151,1,1,22.243932290087194
228,228,2.0335597952154414,0.8208024600555697,1,1,21.523760881809846
229,229,4.750123112091035,8.26368841658442,1,1,21.151626516732662
230,230,5.434291964327084,6.204280033136409,1,1,21.37797558309483
231,231,3.8899428134804017,0.7392801541073601,1,1,4.648448316908808
232,232,3.0488147049604053,6.15803884691752,1,1,20.311307561569727
233,233,7.794927197421887,1.3309423422954414,1,1,14.461772781723166
234,234,6.351853041950106,6.735178498838675,1,1,15.083478186972682
235,235,4.282615993249298,8.86445208012179,1,1,15.28060841331308
236,236,9.843010445716057,0.0,1,N/A,19.977665829489435
237,237,1.9376214697178318,0.0,1,N/A,13.14641380195142
238,238,6.272799276564464,5.373008065237044,1,1,21.92292370225556
239,239,2.4553816872187095,0.0,1,N/A,19.988296458351186
240,240,4.515967992915602,5.550570108668235,1,1,21.98112503993564
241,241,3.845549864208113,1.8819481848997843,1,1,17.207633809094542
242,242,5.607037786609306,0.11953270651911208,1,1,16.662150000032536
243,243,0.8098681217750525,0.0,1,N/A,18.785755973079247
244,244,3.7054329627845495,0.0,1,N/A,15.447155222082202
245,245,3.4115050453892124,2.950664325982272,1,1,16.45661337047026
246,246,9.420677591730009,7.2009590337461535,1,1,17.623263225702246
247,247,3.453959044390491,8.602719128181205,1,1,19.14855680650293
248,248,9.092623941335072,6.855795181583377,1,1,21.821469359530596
249,249,2.768507802748319,6.463602608339153,1,1,21.709366912066272
250,250,7.007797345084401,7.100948365201878,1,1,22.311514708137615
251,251,8.647148264036273,0.283310479229385,1,1,20.1153095860481
252,252,5.865901441823245,9.627651782826463,1,1,17.021088443799577
253,253,8.191124139278566,4.127815808520271,1,1,19.18008738002478
254,254,6.030964568363336,4.502646266466771,1,1,21.37183023914934
255,255,3.665277797434184,7.742927078906641,1,1,20.399303297065718
256,256,3.957035627148613,6.00922995493603,1,1,18.430800912297926
257,257,4.441456260354761,0.24573219951762093,1,1,8.595005099282105
258,258,4.432437520983697,0.3083096660606599,1,1,21.50704882460549
259,259,9.220310531880427,1.739156575520493,1,1,19.09548791486676
260,260,2.554216498217957,1.627002879432774,1,1,14.089186430305531
261,261,8.347881691596015,6.759241179463099,1,1,16.35475550811303
262,262,7.087329925725657,7.142803523675067,1,1,19.05113928359762
263,263,1.4950737463975206,0.0,1,N/A,20.99432335348512
264,264,8.396543192787917,0.5997578828427796,1,1,19.336188389418336
265,265,7.5272423102294255,8.635460595502817,1,1,20.41042779477749
266,266,0.8386698161096051,0.0,1,N/A,11.671786075741025
267,267,7.063774137751024,2.737701737114687,1,1,14.483139562166583
268,268,6.25374628620324,1.010028319030687,1,1,17.06913806975463
269,269,3.9636863558116886,2.8952344245238413,1,1,11.082135843752361
270,270,6.85834392261219,0.0,1,N/A,18.100780312350615
271,271,2.7228821228854305,0.14311499786359594,1,1,16.135956666309934
272,272,9.990527172330975,0.0,1,N/A,12.113467326894527
273,273,4.985697607855954,0.1862769037688361,1,1,18.024337453404176
274,274,7.570556047876,5.053840576931069,1,1,16.180647215960658
275,275,1.9103806343522955,6.018793312053676,1,1,21.589299334711875
276,276,6.1715902719955,5.72905286688984,1,1,23.71243259147224
277,277,0.9365805467350852,0.0,1,N/A,7.291491253106918
278,278,5.8966647836690615,0.0017126618173890495,1,1,22.58260919563704
279,279,6.987258684404201,4.096060385646875,1,1,19.679730655600082
280,280,6.500860630863475,0.3425632819496094,1,1,6.957184689409366
281,281,7.676597732326616,7.54224730400051,1,1,21.348701726099694
282,282,6.446698102829387,1.825861447751247,1,1,8.623321952705172
283,283,9.870728552128265,4.635169970913347,1,1,23.632361299662342
284,284,7.631649717031594,3.341089153889353,1,1,22.26659294255459
285,285,3.338103487453501,6.110388889506258,1,1,23.27346478056188
286,286,1.87928945921376,4.3555931221816255,1,1,10.000997427685455
287,287,8.51184349261043,6.950016246425332,1,1,20.204012342505333
288,288,6.839595248613898,0.0,1,N/A,19.039748579254212
289,289,9.170702965889868,0.04881341890493385,1,1,17.47593439070571
290,290,6.404257143129951,0.4735998808938957,1,1,10.671403631806363
291,291,6.581816018914069,3.5495819257760997,1,1,20.883278014273092
292,292,8.422665204898435,1.420456036941904,1,1,22.637571806316387
293,293,7.303668154493609,5.14577498269301,1,1,14.976688623801069
294,294,2.09709982287567,6.571011842871368,1,1,12.612042366453563
295,295,2.6471704862907885,3.473730021331003,1,1,18.865413436440612
296,296,9.474570780475373,2.3997279731408216,1,1,17.91246361333923
297,297,0.3300423455431367,2.4826347417308323,1,1,13.028986618808698
298,298,1.4378445248619953,0.0,1,N/A,10.648148981443846
299,299,4.1850845525690925,7.566682755946487,1,1,22.366842008795906
300,300,1.2058648352508383,6.404411221040405,1,1,19.573183246057663
301,301,1.3168314630448419,0.0,1,N/A,17.540753468317575
302,302,0.6872724833025667,0.0,1,N/A,20.055990228435753
303,303,6.299821618220488,8.578511765615797,1,1,20.028878968229826
304,304,3.466797835269946,9.263638120349611,1,1,22.837567747216454
305,305,8.568818035352436,9.630659285214097,1,1,21.98714041637158
306,306,0.1376021151104212,8.68264042409819,1,1,17.230029715976553
307,307,1.0450156519972065,0.0,1,N/A,23.175302266064694
308,308,5.520085174734191,8.094672634792252,1,1,19.827278980940832
309,309,1.5376376986940965,8.872227980295996,1,1,22.94981404698259
310,310,7.708810436657393,2.876986497525682,1,1,21.72103432717949
