,Job ID,Stage-1 Processing Time,Stage-2 Processing Time,Stage-1 Machines,Stage-2 Machines,Due Time
1,1,0.8256470297301388,4.076449998359779,1,1,16.560481259180335
2,2,9.816592972382017,8.072845699128537,1,1,18.726163812072226
3,3,6.05489875036746,2.692764304502081,1,1,23.271081945009964
4,4,7.322100227986573,2.3737124182752245,1,1,14.650486607348942
5,5,6.423895118825235,3.6076495079828943,1,1,13.783403699817688
6,6,7.672330563206209,8.155905469786903,1,1,21.56223639140177
7,7,0.7927739769387943,3.685931178277694,1,1,19.30422598518286
8,8,0.9907674101489894,0.0,1,N/A,18.64123288865578
9,9,8.725412907488062,4.006589880725064,1,1,16.83977817083755
10,10,9.952288011839126,9.418642064257222,1,1,22.8591357556781
11,11,4.32008690835384,1.3190289497460184,1,1,13.552661800061648
12,12,0.2787561318009857,7.032816835642615,1,1,15.955964905006056
13,13,7.595363020916345,7.7613533031053885,1,1,17.940227447695353
14,14,9.277583659851803,9.038282953817951,1,1,23.121583290027793
15,15,2.268361272265448,9.444478517710962,1,1,17.432618652299553
16,16,4.888283622902385,0.0,1,N/A,15.324269896857453
17,17,5.498717020633718,0.0,1,N/A,20.135217005245387
18,18,7.979495618524183,0.0,1,N/A,16.82108553366546
19,19,6.7085496824384485,2.5740506442082536,1,1,16.042679216011592
20,20,3.6426023976873156,6.763533402581054,1,1,23.035304159324554
21,21,3.4232368952410566,0.0,1,N/A,23.50853738583156
22,22,8.861437791598112,2.0790283025218734,1,1,23.63264638924138
23,23,6.608153844762864,1.229500451706097,1,1,18.699904271246282
24,24,0.23778355712956278,2.414449272896315,1,1,23.328025756769225
25,25,2.0018037572475897,0.0,1,N/A,20.721621898027674
26,26,6.599683428238126,9.210614274522928,1,1,21.05047719427266
27,27,4.961712018700544,3.9851698993883486,1,1,23.353490307497083
28,28,4.444542691597962,5.453084724419513,1,1,16.322742838142858
29,29,6.21048413127032,3.9695133190717993,1,1,17.33199435524975
30,30,4.097280472324907,7.573558127880899,1,1,20.956570437573006
31,31,0.3325254367131736,6.904271554417603,1,1,19.171065732133837
32,32,6.092953560279354,3.58967031281011,1,1,13.125084285762492
33,33,9.1697370588558,7.733020841947421,1,1,20.14823219931637
34,34,0.44636710776735145,5.8746237830222565,1,1,13.810164449116924
35,35,3.3348549898569404,0.0,1,N/A,13.102264891702244
36,36,2.709607809007032,3.6445551200216153,1,1,22.097541697150735
37,37,3.899564827028701,1.451376911886021,1,1,11.253845265696674
38,38,8.8155821343963,9.268647077283797,1,1,23.22822034536179
39,39,0.9609841769959848,0.761736255846488,1,1,10.987160847264072
40,40,6.462773991198478,0.7201378987640139,1,1,10.02851573035883
41,41,5.6381456188102455,7.262418505499012,1,1,21.327766902580205
42,42,1.5380627321562357,0.0,1,N/A,22.455108645714425
43,43,9.696043167921513,5.308484210134798,1,1,23.01613783563407
44,44,5.725043529327404,0.0,1,N/A,15.292752331621907
45,45,5.316774197620042,0.6425037843611003,1,1,11.699913220837947
46,46,9.240694082832047,0.2812962704777855,1,1,13.07789623884685
47,47,2.7778309748446484,8.349078750593364,1,1,13.693400985732273
48,48,6.81503730581694,0.0,1,N/A,19.047266441843835
49,49,4.674605543031385,3.4100700635252554,1,1,17.884762114414585
50,50,9.896215265488173,5.432832875813069,1,1,22.577166581200515
51,51,4.029687472575867,6.747230816442885,1,1,12.259500988053983
52,52,5.739566610822704,9.947624721067882,1,1,20.262602843412523
53,53,9.007426759152732,0.09759230720971845,1,1,19.847657968040124
54,54,3.0972289181910826,5.624018257756086,1,1,20.331075204951176
55,55,9.565206482019127,8.01562449793653,1,1,19.915227370974392
56,56,7.431811559627035,4.24265412465131,1,1,20.695038610813626
57,57,3.1918325819699422,0.6423414946694805,1,1,7.235785467040204
58,58,9.900246885770063,6.734000733430353,1,1,22.90392184441995
59,59,3.514775579027558,5.599451979563737,1,1,22.766294124237938
60,60,8.879104322645327,5.068680819223119,1,1,21.64104041779577
61,61,1.5154007260687985,8.728622985606057,1,1,11.770345954425483
62,62,5.967187081603377,1.1669937129861097,1,1,20.34444136435456
63,63,1.2645881669594528,2.5667639936811817,1,1,14.731621565780085
64,64,0.09449400232503957,4.487621278923433,1,1,5.386817816212901
65,65,6.289559558121364,9.440148993695999,1,1,21.232103423429045
66,66,2.5963617767259297,7.72862379658608,1,1,13.553517786817212
67,67,5.665167351786309,1.6307056151438115,1,1,22.07241963855862
68,68,8.343386288549278,8.936416857927876,1,1,19.884236126403746
69,69,5.195623967695661,6.05464343861838,1,1,13.031129855573043
70,70,1.5466771163832638,3.0249530112680203,1,1,9.692235105665128
71,71,8.422143060997847,8.068753497950802,1,1,16.830563453594912
72,72,5.61656310451212,4.441728952753908,1,1,16.193335947469304
73,73,7.469507061712887,8.48173529826907,1,1,16.650190791096183
74,74,5.829848699157322,5.269708725456529,1,1,18.368716604857
75,75,7.605481371612004,7.473757236511495,1,1,18.880741156437978
76,76,4.3973401550379005,0.0,1,N/A,7.933558060359045
77,77,8.793726159679396,3.952158533764117,1,1,23.22884535270787
78,78,9.979405313232949,4.89813503928913,1,1,16.10172528745802
79,79,7.716814810826012,9.43566459604294,1,1,23.96379536544523
80,80,8.82260122608122,1.0543467202631907,1,1,16.88748589093531
81,81,1.4880621483599576,7.682351730084181,1,1,12.766897265425186
82,82,6.594828015599477,2.7609672466806234,1,1,18.70574401175277
83,83,3.0069317294712974,0.1219749914831969,1,1,15.193927033643906
84,84,0.70890065111334,1.9017254948161977,1,1,23.998898507187185
85,85,0.371195669795914,7.019361075668515,1,1,16.30199180818416
86,86,6.377968920916346,3.199665803945697,1,1,16.9680642960987
87,87,6.255821219452762,4.385289533952364,1,1,12.311404136636792
88,88,0.5045357642551129,0.0,1,N/A,6.273303844969597
89,89,2.2678803529620515,5.084837948077148,1,1,20.748708474720242
90,90,1.429106263430281,3.4201965566096915,1,1,13.968130585740234
91,91,4.002437146287092,0.8349435637950564,1,1,14.946707258762284
92,92,5.6071885018649095,1.6641466557648765,1,1,22.05106550847582
93,93,6.595437777911901,0.43221712323917805,1,1,8.3196191096992
94,94,5.394542151810507,0.9771831652239571,1,1,14.680809583578434
95,95,1.6940938101945868,0.9645244257009122,1,1,20.122045473128566
96,96,6.918802203080336,5.791783891157468,1,1,16.232258423050638
97,97,8.149456052248985,6.360721844652901,1,1,23.36358632372938
98,98,0.5367414463674114,7.079021434376557,1,1,19.816482378247713
99,99,1.2417400118391309,0.0,1,N/A,19.510658881633717
100,100,1.2638897723968856,1.8689531373057522,1,1,12.474811909528253
101,101,6.02585222837984,5.829049121424569,1,1,23.92552501203592
102,102,3.132065531364222,0.9560444558633074,1,1,9.20269070570612
103,103,8.799312978720813,0.12538355484062347,1,1,23.11027500962927
104,104,5.686832348838543,7.679366632984302,1,1,16.806098144924672
105,105,2.917169947119065,1.1804768876717098,1,1,21.434206919977917
106,106,8.68376339405096,0.0,1,N/A,23.738915879559016
107,107,1.1542636419732033,9.028614158048132,1,1,17.079517148136574
108,108,3.5090365631149947,0.0,1,N/A,23.481198958356003
109,109,0.7518923196565563,7.775226104692114,1,1,11.696101190886361
110,110,4.266063313672452,8.496810419962697,1,1,13.77960157432458
111,111,1.5111234720487532,0.22728169225454842,1,1,6.925055150080576
112,112,6.684443943580087,5.436271185565563,1,1,16.422049678569653
113,113,5.745237710983689,0.0,1,N/A,13.625318971310918
114,114,4.195307355263238,1.6180005325861513,1,1,12.640301579940278
115,115,3.1888131385776375,9.562972721761064,1,1,22.40867029553518
116,116,7.55487455788464,0.6658102907055463,1,1,13.406684198490682
117,117,7.189663291215264,6.022141001965786,1,1,23.463818530311162
118,118,1.7049154004023859,8.320760248300722,1,1,11.182962147684348
119,119,7.071308877560492,7.615897755812969,1,1,19.650725538337916
120,120,6.886709072272348,5.548628565785796,1,1,21.65429590975488
121,121,4.637738175915845,5.576510944321994,1,1,21.02025030376723
122,122,4.194792232193034,3.506345441853953,1,1,10.13020531440081
123,123,8.814943344554813,3.474060538253636,1,1,18.80033391003023
124,124,0.00518838042104508,6.381943164076458,1,1,14.043517849142653
125,125,7.75437344308878,7.031897856045676,1,1,18.09355212442153
126,126,1.568202737923774,1.8518469952059768,1,1,9.620211126513903
127,127,7.264576634585583,8.412353918816823,1,1,19.783085628672143
128,128,3.9809998928078736,0.0,1,N/A,21.61303448162954
129,129,1.2703325031399926,9.70984095874994,1,1,22.34469911333715
130,130,4.4419060342662355,2.3445004593111762,1,1,14.486006985227752
131,131,5.841240482071939,0.0,1,N/A,23.104653752944508
132,132,7.63749506250697,0.0,1,N/A,11.536706214268332
133,133,7.530729458021305,7.277517868260114,1,1,20.272476132501083
134,134,0.05829165627260435,1.0081115685826136,1,1,10.797872354547843
135,135,4.129527240362096,0.4724609206109842,1,1,9.338338135155324
136,136,2.766157801297645,0.9251369948394983,1,1,10.272405762719657
137,137,7.151005262750639,7.1038324192261095,1,1,23.485013608584268
138,138,4.672465692843223,3.1626688815661987,1,1,21.305766590436512
139,139,8.221667232581453,7.4239625813772925,1,1,19.444240377150273
140,140,6.021927242164393,8.094640182285564,1,1,21.917021081025855
141,141,3.4554358433789134,0.3787630050185664,1,1,22.19797559227916
142,142,9.129401169770064,6.471318544623533,1,1,19.616228438398444
143,143,5.170196997131726,4.976557755801774,1,1,17.228989592350956
144,144,3.727876125018109,0.0,1,N/A,21.506883700694864
145,145,1.8042525930541142,2.83350194572754,1,1,15.637206564701042
146,146,4.301809727302416,0.41011720758515113,1,1,17.445412805587335
147,147,5.792640467639814,7.705840932015112,1,1,13.814637549380258
148,148,6.370342885427325,9.256759569433408,1,1,20.275693637128917
149,149,0.8494110373885977,8.828166212682463,1,1,13.050119701217737
150,150,3.6043895896633824,0.0,1,N/A,22.145181191353537
151,151,6.085042714621545,8.480345596749336,1,1,16.972769638650913
152,152,3.599023105441257,8.973649305378405,1,1,15.734952129365858
153,153,4.511246052009673,3.414109924572485,1,1,18.395029372599843
154,154,9.832561968817577,4.984907468395016,1,1,19.358613118687487
155,155,8.152738213344517,0.0,1,N/A,22.546836778816306
156,156,6.494629397331291,0.8854094772498822,1,1,11.205418736734442
157,157,2.7551643697806694,2.1413316236911317,1,1,13.44913397961825
158,158,5.026420218482905,0.0,1,N/A,17.384467140305375
159,159,4.333664714092892,7.024002912800099,1,1,20.438848565801436
160,160,6.424038461175084,0.0,1,N/A,20.91955728403559
161,161,2.1384907143895457,8.650775062559182,1,1,17.120820542654904
162,162,3.018584897873379,5.053252194816552,1,1,16.801591354611624
163,163,6.579124937815176,6.838845183557933,1,1,18.155788286138993
164,164,2.5447125436008946,0.0,1,N/A,19.183155639844877
165,165,9.44563347183438,7.7320302324804215,1,1,22.69610887718979
166,166,6.229039770489586,0.0,1,N/A,19.718657914666636
167,167,4.146367904586523,9.711362338999967,1,1,21.147569111047247
168,168,5.776844255003871,3.5029729021738087,1,1,15.374414423851476
169,169,7.285065172503825,5.205778154478971,1,1,21.137090263225588
170,170,2.298354884448516,1.9375308170241035,1,1,7.6382262470566875
171,171,5.7969678423489555,0.0,1,N/A,19.434790125268044
172,172,6.475745050968334,0.0,1,N/A,9.901536912657905
173,173,7.041356211671182,1.6645737634477464,1,1,20.27297031347002
174,174,1.594730791460317,8.30746142845852,1,1,13.722682411456322
175,175,0.005143682340641442,3.0845018321301296,1,1,8.85070197664573
176,176,5.066958882390771,7.916503393159399,1,1,15.640973393751992
177,177,0.31786718487342824,0.6352753044293691,1,1,16.168823012196665
178,178,7.118315681038144,7.113385127820642,1,1,20.27236061122268
179,179,6.3972253439478415,4.896913179228504,1,1,15.242144220440547
180,180,5.870973139117687,8.4077843972574,1,1,16.64635762448426
181,181,3.2121253945655335,0.550286455502369,1,1,21.59759472965909
182,182,8.787597072152334,0.0,1,N/A,23.950959962876585
183,183,5.72657037429239,8.059014793972633,1,1,18.782562013342773
184,184,5.570792935917034,9.859916552876099,1,1,23.980386407142962
185,185,9.038464183199121,0.0,1,N/A,22.513515284251177
186,186,4.124234767050946,0.0,1,N/A,11.477221380972953
187,187,3.2351273950351156,0.0,1,N/A,18.30882378401915
188,188,7.677308415610464,6.000510315498203,1,1,20.593979814665875
189,189,4.576470635722268,2.1169125958538837,1,1,8.396133404214293
190,190,0.013901899051227407,0.0,1,N/A,16.018949272744695
191,191,3.188203375309765,7.3772343705637855,1,1,22.600725181446773
192,192,2.012710183824864,4.908154172635694,1,1,9.133398504182159
193,193,3.323948249511053,0.0,1,N/A,21.444861145697857
194,194,8.257662617929162,9.374160947796476,1,1,19.255779019959707
195,195,7.975863623131545,0.0,1,N/A,14.689400995415598
196,196,5.268078680580234,4.493704294535812,1,1,14.384056891070506
197,197,9.162502940102112,0.8532259083900862,1,1,14.251032864407637
198,198,8.233722311204978,0.6680477133700213,1,1,11.160104336225016
199,199,9.507620376623857,4.284496237490383,1,1,15.001984236783425
200,200,7.648872787665413,4.062323053121476,1,1,20.919850215042544
201,201,4.5090834282156935,0.0,1,N/A,20.539348233502558
202,202,5.319664968864037,6.666651622782915,1,1,16.854558416896335
203,203,7.565791113658358,9.955225084556288,1,1,20.44333941611257
204,204,5.13208084361418,8.492201636982674,1,1,14.346596346066974
205,205,6.147787592141115,7.84149882612049,1,1,15.425121388210123
206,206,7.606988844949832,1.105377771663505,1,1,17.797051033193817
207,207,2.6827213051914423,6.275386270923971,1,1,16.406686281917068
208,208,2.3711640908892404,0.0,1,N/A,17.428619915119306
209,209,9.65863410798505,1.3738273520793587,1,1,22.19436024686063
210,210,3.072505043686471,6.06051747044318,1,1,21.539197502190767
211,211,2.570961956891651,0.0,1,N/A,20.2435139999654
212,212,5.0389629931117685,0.0,1,N/A,16.381835250407015
213,213,2.8488343694766693,8.079285780766957,1,1,12.815943837873732
214,214,9.014928024949969,0.0,1,N/A,15.884222044668332
215,215,6.3354523413688675,3.1996563821123103,1,1,10.368512770335604
216,216,6.7953021537509795,9.286749444427157,1,1,16.535489905512108
217,217,7.185526950647429,3.866349439636203,1,1,17.106729234167805
218,218,0.46100723106719976,1.366060718149642,1,1,19.830106450261432
219,219,0.7052309102196008,2.2090212195532635,1,1,7.022559472623742
220,220,4.1994107736977595,8.880410849984276,1,1,22.95979285641476
221,221,7.873505729725415,5.80899952057532,1,1,16.838355263267427
222,222,7.923428314531393,9.205245922321412,1,1,21.233188674341022
223,223,0.06399730874073195,0.0,1,N/A,8.338822053000872
224,224,5.692581880344476,1.27721088646512,1,1,16.625344162469112
225,225,1.1209801679671316,4.164794004758599,1,1,8.352546540486744
226,226,3.2360671922029285,6.571463014024198,1,1,20.430695551071974
227,227,6.276730681092264,2.2529100623426257,1,1,23.591470225889104
228,228,4.602479485207517,6.366262221455238,1,1,16.716400834105492
229,229,9.127772265851302,6.701833867971356,1,1,18.827486758429178
230,230,1.387303521346297,0.0,1,N/A,18.3436325954993
231,231,0.29479527894792135,2.9272185287886043,1,1,3.960048043428838
232,232,1.7533693420919094,8.201286565930205,1,1,17.012832067906345
233,233,0.1030355485485257,5.482417412284381,1,1,21.19511559981995
234,234,4.247634752097529,7.4901315046634265,1,1,16.535965659972888
235,235,5.579905333061702,3.3092940860378617,1,1,12.957113048608335
236,236,8.572090112579646,6.760581876791396,1,1,16.896124947493394
237,237,3.0151194368421197,5.357754488576083,1,1,11.50268147452001
238,238,0.11328429888190383,0.0,1,N/A,14.882972670484145
239,239,1.4986050872034662,7.601548340642762,1,1,23.440520167357874
240,240,6.278021836102926,9.578681860676072,1,1,23.796280012944795
241,241,4.984183422162612,3.4133508865014495,1,1,22.11798186896405
242,242,1.4825038416446246,0.6694062650134458,1,1,20.871954540931142
243,243,8.8238384087239,8.601160405712292,1,1,22.529558179452586
244,244,8.493235469398643,9.865955053949634,1,1,20.50677332209859
245,245,8.333862836369224,0.0,1,N/A,14.888236628916804
246,246,2.520419294442855,1.8749232431118668,1,1,19.77774857248545
247,247,6.781644218829065,5.097644469791036,1,1,22.180209070718135
248,248,0.9050127976816646,9.5885695386763,1,1,18.877353488350163
249,249,2.5056064288661704,5.749880887046674,1,1,15.48119822976987
250,250,8.519622460554253,9.75786215702152,1,1,18.925866662729774
251,251,6.429162459010945,8.511659101272306,1,1,22.817911109960868
252,252,6.076480133698588,0.0,1,N/A,7.970716452901218
253,253,7.0490734449394505,4.196894861120137,1,1,23.553602644394157
254,254,1.9000500660985042,4.304958697385214,1,1,10.06573964888217
255,255,7.931146785085133,0.0,1,N/A,23.898414814816235
256,256,0.24654377642589154,6.998575026535678,1,1,20.76834859091528
257,257,8.014359980815582,0.0,1,N/A,12.547107058798487
258,258,7.991942890969103,1.83552363302802,1,1,20.06037971712788
259,259,0.7332908376392133,2.027278719022455,1,1,4.027304964490053
260,260,8.632215679130585,3.6791491841962976,1,1,16.04366217164047
261,261,0.607563150734477,6.660229400375103,1,1,10.164846219326467
262,262,9.932756137897234,1.0561545093352842,1,1,19.809226823980502
263,263,6.46113444096456,1.6785638146432402,1,1,23.022748718760383
264,264,0.3877721573280535,7.0433397435713,1,1,18.192299656624307
265,265,8.143160451276207,1.9741244475175868,1,1,23.060547258193754
266,266,6.89354578525475,9.81396514683557,1,1,17.829043151888392
267,267,8.527364914352425,0.0,1,N/A,23.705973006869854
268,268,8.175836095514185,3.870914609836774,1,1,13.71709969295847
269,269,1.7811701502533461,8.705750922897519,1,1,13.75578450570524
270,270,7.205565778895804,0.0,1,N/A,10.029483535617757
271,271,4.907552237579971,5.098297301435398,1,1,20.749777143692206
272,272,6.874856285634001,0.5810596946927005,1,1,12.418848131482996
273,273,8.343154399108613,1.6349009494095712,1,1,15.84870884248711
274,274,8.076814050584938,0.0,1,N/A,18.676254514664407
275,275,1.0299716065093756,9.37310178777954,1,1,14.9893953315081
276,276,4.714256898969805,6.1680357179205,1,1,16.035931524038478
277,277,0.4324160601527871,2.9499611712810694,1,1,14.508307578848724
278,278,8.580006947997326,1.137024165542091,1,1,21.489762968004932
279,279,9.230155194598431,3.874094846096595,1,1,19.832095099236355
280,280,2.121279884898212,5.438133283500558,1,1,13.6262410455398
281,281,6.285735750822136,5.985083558751528,1,1,23.54390399784534
282,282,2.3587937290966074,2.576229105600687,1,1,14.330602126307653
283,283,0.7055388653044203,6.225855923945693,1,1,13.090878544422399
284,284,0.7889079386236852,9.369124529232225,1,1,14.781305861781933
285,285,7.1064322539635505,0.0,1,N/A,20.42777894793589
286,286,0.8386806326720075,0.0,1,N/A,8.133535375237326
287,287,6.921923907136868,2.4267607743894892,1,1,12.134311082174122
288,288,1.644961225492283,1.3219394944453178,1,1,17.719901490500227
289,289,1.8302585789154746,9.800820814023703,1,1,20.448230438347743
290,290,3.7964389233870053,0.0,1,N/A,13.383070648997695
291,291,1.8839739529958655,9.602738828513749,1,1,15.919719650028847
292,292,1.3753809213803125,4.892424115159052,1,1,7.253600640350432
293,293,1.2911191445712,0.34869767791478545,1,1,13.947970322352186
294,294,0.7032569424482593,0.29089208345866924,1,1,23.521834852616948
295,295,2.6577146969262824,0.07676031984850451,1,1,19.099285218112726
296,296,4.396664677413615,2.3501304169782697,1,1,14.111860768619863
297,297,1.5880053873094258,5.432414057796681,1,1,22.77139081769691
298,298,2.0356790492567156,6.5694775999313295,1,1,11.237038082288063
299,299,7.196417779822984,9.659083522609105,1,1,19.91364593962637
300,300,9.64729658345667,3.7038441957032298,1,1,17.08811286180284
301,301,7.200662047079502,9.171291177128575,1,1,17.547399820306502
302,302,6.180433346247001,0.0,1,N/A,15.815870200427206
303,303,0.2765479679312355,0.0,1,N/A,19.659517255347637
304,304,3.0477552933530196,1.4777052060506801,1,1,13.737464253743873
305,305,4.67573098464109,5.972471049557367,1,1,22.25059783479495
306,306,3.6008184751373795,2.3611638847846894,1,1,18.120349144993074
307,307,3.2057318020898684,2.8467948301492774,1,1,9.09894003435568
308,308,7.370601077008177,0.6520774769227244,1,1,15.502087854201715
309,309,0.5458442708929645,7.979248183291307,1,1,14.121447757383432
