,Job ID,Stage-1 Processing Time,Stage-2 Processing Time,Stage-1 Machines,Stage-2 Machines,Due Time
1,1,6.1997270932388435,0.0,1,N/A,18.268968094994484
2,2,7.786401550182629,8.390963813497912,1,1,16.502736240064003
3,3,5.0002326378888995,0.0,1,N/A,18.486834359087197
4,4,5.424327021862494,4.807762105582784,1,1,15.773555229295848
5,5,1.2338612130061266,6.321172517611242,1,1,10.98728596241476
6,6,7.629297251339184,1.7598769080785492,1,1,18.91851414329782
7,7,3.896298796176697,1.4213170253618523,1,1,18.659810899304773
8,8,2.238961406268337,0.0,1,N/A,4.325745538714293
9,9,6.882914518293046,0.0,1,N/A,17.223285023537244
10,10,7.095152304544267,0.0,1,N/A,17.03094360582164
11,11,6.5232043662600585,5.841382386078607,1,1,13.813666848494927
12,12,2.3994101216941646,8.58390157599766,1,1,20.69147882575326
13,13,4.0525572908500695,1.887904896520779,1,1,15.99437264586166
14,14,0.18713153593818754,0.5087494776290746,1,1,18.896021648423762
15,15,6.062033672695848,8.392480443480148,1,1,18.49411397611076
16,16,6.60932189245411,2.8270653146702216,1,1,18.695221509309498
17,17,9.21075412408425,5.972839465785995,1,1,22.635767958983507
18,18,5.798751885501241,0.0,1,N/A,11.677755105282866
19,19,6.883094099050869,0.0,1,N/A,21.531669396124087
20,20,7.148322348893295,7.973501758802538,1,1,17.97345807087948
21,21,2.3437968726149583,8.08865369060972,1,1,22.579422274303084
22,22,7.390321913866529,4.231997843706506,1,1,14.52512754988576
23,23,0.5844446747221343,0.0,1,N/A,23.204052507337106
24,24,1.601934312789709,3.773189811172614,1,1,13.926133225359933
25,25,2.0630050709255245,1.2514073854377927,1,1,17.677128905554568
26,26,3.8749552835897916,0.0,1,N/A,21.92753664096142
27,27,7.40235931061036,4.22163104952999,1,1,21.684375234937775
28,28,2.8125026377145157,3.7794718408644465,1,1,10.010212846329289
29,29,6.796308926361752,8.380272241956705,1,1,16.230717082113642
30,30,0.06444015891762911,0.615656855776473,1,1,23.91326885048248
31,31,7.95899135030403,0.0,1,N/A,23.808949362626553
32,32,0.02544537488173848,3.1555340730941905,1,1,23.334346011798413
33,33,1.8357252935095825,9.295931134356705,1,1,23.085093433768947
34,34,7.131667026796023,0.24501383976600843,1,1,19.059105848526578
35,35,4.6697695465200715,7.358742241011571,1,1,22.34863929088523
36,36,4.663453386248555,0.0,1,N/A,14.327178907712387
37,37,7.46109057372493,5.894642725036724,1,1,15.900574645635071
38,38,9.887748240351911,5.677855819694155,1,1,18.437394136501137
39,39,7.617868441471964,4.998524022815348,1,1,17.84223062334974
40,40,6.853072146001118,3.570011086638021,1,1,20.02038758465082
41,41,6.4217020387642645,1.4329294912790902,1,1,22.915137388669788
42,42,9.039172225276454,2.095531694494844,1,1,20.30307200265779
43,43,6.147239088180774,1.7550746533441275,1,1,22.145588604156302
44,44,0.33201681514063,3.1128058439125814,1,1,22.397627367924592
45,45,8.496675401206934,0.0,1,N/A,16.946223659063566
46,46,6.294570413211521,1.647401184163535,1,1,20.747940492150306
47,47,5.7200122698923845,0.5259684071823878,1,1,14.85032533245115
48,48,5.900779594212418,8.612759543868389,1,1,23.17427702666651
49,49,7.896566345803176,6.9302043973232985,1,1,16.928808768665867
50,50,7.108348397902536,1.428514876782937,1,1,21.989824676021616
51,51,5.227743450222539,4.334880473156034,1,1,20.349018841036752
52,52,2.0164109434265076,1.2899000381712655,1,1,8.043604135733895
53,53,0.49315568093051043,5.664534970838593,1,1,13.13115210363853
54,54,3.8300187185455803,5.9050812463106475,1,1,13.117840516452938
55,55,1.2406541990237951,6.910461735032737,1,1,22.730585051200475
56,56,4.485805721173128,7.356792626628851,1,1,17.728218051694633
57,57,2.583587226603176,4.740052880453296,1,1,13.63464117056257
58,58,2.0011050869964397,9.075489451187181,1,1,15.967124892885845
59,59,7.120978758947494,9.538639301557714,1,1,18.02045735297407
60,60,2.4135194733703513,0.4521105867009634,1,1,6.376603191954244
61,61,7.165456082779711,0.8073971198846985,1,1,21.418889359883636
62,62,3.6642874470453446,2.0672143919173402,1,1,21.982728934822646
63,63,1.9707543442165654,5.3058344080655,1,1,10.436809945903246
64,64,5.920765388741512,9.368852103119977,1,1,17.02022585008929
65,65,8.871358625720651,8.535652898496544,1,1,20.62044281829979
66,66,9.429330721170304,9.771779238439079,1,1,22.602966178156468
67,67,8.581428350495155,1.5733254734060553,1,1,13.386124917515108
68,68,7.282813792285596,3.4944760748020887,1,1,12.494136313068422
69,69,3.3957681460936397,4.9995941025722015,1,1,17.418602871464948
70,70,8.244126863120405,6.103366908715112,1,1,16.93009721496242
71,71,2.26576156159227,7.75527048733983,1,1,23.14370938093988
72,72,9.05599726000986,1.7588428654909538,1,1,22.24504691763886
73,73,5.285145851644948,7.078929551882219,1,1,21.27269607292018
74,74,9.70824440685864,2.3604115732690745,1,1,19.282630162872646
75,75,9.938029191546297,7.7431172548438365,1,1,23.07933505018716
76,76,8.977860955691238,6.3899022968306,1,1,19.766715545519382
77,77,6.238383758419813,4.4386719399675805,1,1,23.542582819854573
78,78,5.946574724819661,5.082795072636406,1,1,15.678507990573628
79,79,5.151821908182371,5.589987382379281,1,1,19.93561170792678
80,80,3.4878190676570977,5.744460450225153,1,1,23.86847556434421
81,81,3.152432541334024,0.0,1,N/A,18.3045582598629
82,82,9.692344376853248,0.0,1,N/A,19.028795624120526
83,83,9.064500134941525,0.0,1,N/A,18.123129414806122
84,84,0.15225264012943662,7.032182670546011,1,1,17.053350612375887
85,85,0.940220647312644,5.3083802412529915,1,1,10.963206256136115
86,86,8.625509796060518,5.798090602678077,1,1,19.54887135270933
87,87,7.5921060133459,7.675332107274247,1,1,18.927794802923856
88,88,7.9762970988297255,2.353176926146918,1,1,11.696402943004895
89,89,5.545576174378165,5.251931651747126,1,1,23.459286936660064
90,90,5.3634114809958735,3.2051854406732447,1,1,17.09320268186933
91,91,6.1250331879954985,4.858413801183409,1,1,21.622175437857635
92,92,1.1538303853602938,7.340136494773034,1,1,11.472499428602102
93,93,7.826114765827089,0.13688799982437772,1,1,18.66057344627519
94,94,2.8290881881072707,5.5772225151514485,1,1,19.902645202167616
95,95,2.998495659390189,2.093760708830099,1,1,18.03519736444048
96,96,8.245841641503326,8.212284389977041,1,1,16.750437187218548
97,97,0.9610417199055887,9.076274302572575,1,1,14.57780002621261
98,98,8.14067954169219,5.276737464887738,1,1,17.892639055097657
99,99,0.9944506044319346,8.44580061982969,1,1,14.414972182470548
100,100,2.2108690925379673,2.644815065276723,1,1,16.639074750856796
101,101,8.758650818173733,3.696966030672918,1,1,14.036404470698887
102,102,6.855708064345657,3.036894280857979,1,1,14.557029665503885
103,103,5.213845451709509,8.321745316383897,1,1,17.052962766134826
104,104,8.258317814372466,0.0,1,N/A,16.52597838855202
105,105,5.844993005985929,2.8523430416998696,1,1,14.737875171912542
106,106,1.1087620659644049,3.9599051479975333,1,1,16.7744632480766
107,107,4.3147511913155245,9.632460896970025,1,1,21.853127151877544
108,108,7.061713359379339,0.08317267425158148,1,1,22.331010086768458
109,109,2.163741864795079,2.939870348434276,1,1,15.361548441371493
110,110,0.6050275492695989,0.0,1,N/A,20.505525238878015
111,111,4.69869653251938,7.2834372241632925,1,1,17.287895769994062
112,112,4.092371698289759,0.0,1,N/A,21.901295056767765
113,113,7.109328598405913,6.134082211914852,1,1,21.624705269964917
114,114,0.8110901020869088,3.2012698671793594,1,1,18.393849711285
115,115,4.016554767335091,0.0,1,N/A,12.985903312785618
116,116,8.75797577521085,8.840144344135014,1,1,18.544715085176588
117,117,2.6682991208957474,3.2729740478592753,1,1,22.830917563697597
118,118,6.840723987461405,1.251795637187022,1,1,14.695669501182062
119,119,1.153088347512119,3.580954348553246,1,1,22.19269761057827
120,120,9.0668053420358,9.026277030222902,1,1,19.148776644930354
121,121,0.17454319471742474,9.407471198384876,1,1,11.641032893636984
122,122,9.208748473361203,2.889771998966093,1,1,20.66411681450704
123,123,7.522941029268337,5.591419784463438,1,1,17.949216972671906
124,124,0.7445915304646378,6.962735059326319,1,1,7.86187123013926
125,125,2.7040183351803226,2.9470582138412507,1,1,7.697564127458466
126,126,0.47561946497143626,0.0,1,N/A,14.493223571298492
127,127,8.87704575176757,0.6323839261436282,1,1,23.772137130396903
128,128,0.4722973525330332,7.637718382247279,1,1,13.440991682318412
129,129,1.061927964120818,3.7512040676042258,1,1,18.312669833735907
130,130,7.991931803791147,6.367383536819029,1,1,18.876194179693353
131,131,4.173968928183205,7.6511110215968845,1,1,23.592944473331308
132,132,9.761325113368592,0.3058046730728303,1,1,15.508559082115815
133,133,3.4578157524815953,1.732215246528268,1,1,7.764496381500661
134,134,7.841262372918275,0.0,1,N/A,18.767581604845226
135,135,9.414093650594763,9.208286339610444,1,1,22.405404275327044
136,136,1.9602874757181055,0.9020410951513302,1,1,13.610356044765162
137,137,7.535093135755295,7.98843362128017,1,1,17.29255807367934
138,138,2.8861102227466273,8.305259860838515,1,1,20.15014588506207
139,139,0.8406996742697914,1.7285872342963038,1,1,23.930358854303925
140,140,4.658961223954796,5.2298525880715365,1,1,15.362383148105032
141,141,2.293394156644685,0.0,1,N/A,11.968202184138628
142,142,6.313884763532559,0.0,1,N/A,16.8807952229197
143,143,3.218531814913095,2.2922064747684634,1,1,8.942356413605793
144,144,2.0215196644221245,7.6315784560148705,1,1,17.445338668576603
145,145,4.472132676173067,3.295665038416744,1,1,16.047324262520767
146,146,9.161358889296382,0.08490178079770927,1,1,20.505949609070974
147,147,8.73294603112266,0.0,1,N/A,19.395915580387406
148,148,0.5062530527836839,9.117959124213819,1,1,11.927670481931568
149,149,1.7804591335748199,7.80335325313012,1,1,13.595718641055473
150,150,8.663681987814982,4.902427235705014,1,1,18.188129748504846
151,151,2.5200631058136977,6.698435957189611,1,1,9.858838097909455
152,152,2.2957395551092596,0.7812527543583236,1,1,4.040753042115907
153,153,6.131963120107809,3.1627166884582723,1,1,17.133007205553373
154,154,0.14772347294033983,1.0946911922416203,1,1,6.049505640577342
155,155,1.83493234417196,2.988255712685458,1,1,6.608271899631711
156,156,5.524328817205168,6.527080257481019,1,1,21.107982416153654
157,157,3.8340732957296044,7.72317728995112,1,1,20.810432646058274
158,158,3.130637895512993,6.726137708910023,1,1,20.589579612942906
159,159,5.25707721670237,8.88835779280673,1,1,14.973012139969004
160,160,5.732207472990379,5.6508747727870725,1,1,20.156909094097205
161,161,3.6891811120791984,9.487496979890535,1,1,19.959221377559473
162,162,3.2262195646034386,7.6093025036810245,1,1,17.808911312249684
163,163,5.893907321444939,9.43432393212759,1,1,16.585071557648405
164,164,2.4979997399761036,0.0,1,N/A,14.081286128326811
165,165,0.8375951091171852,0.6877345571780091,1,1,23.19075328016303
166,166,1.4701879622317526,3.2614424621970017,1,1,14.604213667893013
167,167,5.226980766464079,0.0,1,N/A,20.415605480006874
168,168,6.7200167107351225,7.437143727207813,1,1,19.584988820045957
169,169,0.24765475110297475,4.897095845032804,1,1,23.53746415606039
170,170,8.508801539453243,0.0,1,N/A,16.757481269927126
171,171,2.1201091257487246,7.2536438117217745,1,1,10.716164069706695
172,172,5.2865605989917785,9.015530484417944,1,1,19.87174974008305
173,173,4.643767521495008,4.3369255259950625,1,1,11.518907011938769
174,174,3.3916166981150884,0.0,1,N/A,21.964644392755865
175,175,7.039457537745752,8.827604241231708,1,1,20.930688334124635
176,176,4.447837609031095,6.08854681769604,1,1,20.936746807632023
177,177,6.625497622783234,5.5302823859573005,1,1,18.789145449807044
178,178,1.0686241166069221,5.371150757184346,1,1,15.933684181575748
179,179,1.0828588690405483,4.329012564036105,1,1,5.920499506633726
180,180,2.126145035271464,2.8921713686935457,1,1,19.633056923346324
181,181,8.53879230867663,8.2162410876453,1,1,21.654741358355984
182,182,9.3211973266555,0.26210883522009065,1,1,15.628100927745749
183,183,1.3508174568156062,9.582908902090011,1,1,18.110744566928265
184,184,9.313046440473112,0.07681982618787275,1,1,19.311965346868945
185,185,5.98662540206321,0.0,1,N/A,14.794899509096311
186,186,0.7677415218173045,2.9915723309537725,1,1,5.189113612299893
187,187,7.758897807628813,2.854475849274599,1,1,20.099201538064527
188,188,4.244458197527862,7.072172233473242,1,1,23.882093861792548
189,189,3.980486816385244,1.6520790531716756,1,1,10.217772233703766
190,190,4.24764515236998,9.022179823243512,1,1,17.783615460502958
191,191,1.2207368882005376,9.785768825084434,1,1,13.310067528610615
192,192,7.633982466436066,1.4971818029528472,1,1,13.177729631792232
193,193,2.2759559938597427,0.0,1,N/A,11.357472284101751
194,194,5.402068840018918,4.6652279879670076,1,1,12.058616898374279
195,195,1.5549867597112799,6.709382763487536,1,1,19.684346593539107
196,196,8.154727734479412,0.0,1,N/A,16.8643263414084
197,197,4.421551284901128,1.9899862373367216,1,1,12.444010538104092
198,198,7.663715986132185,2.7339960570271105,1,1,12.811546412624438
199,199,8.922688340605072,8.077647394801286,1,1,17.32979491657078
200,200,9.095645811172705,0.0,1,N/A,17.83842057329528
201,201,0.3447611743347123,0.9383759529959601,1,1,13.346801058572101
202,202,5.2829926498988256,1.3481664559473538,1,1,12.308990491060973
203,203,1.0317507245832025,3.2825447249090733,1,1,16.70981050401332
204,204,3.694123397134712,9.24117422329261,1,1,16.349988994916135
205,205,0.9895303171214431,0.0,1,N/A,11.975884381359041
206,206,7.742154268179219,0.0,1,N/A,22.78156706022981
207,207,0.2665422505120607,0.0,1,N/A,23.367365160849154
208,208,1.643962103735852,6.80809344150518,1,1,14.216782146716694
209,209,6.456006813037687,6.109199615835222,1,1,21.526298415183305
210,210,7.254580741243915,5.353805467504571,1,1,22.285910775210045
211,211,8.707684209566773,0.5923731378678165,1,1,20.919834254327224
212,212,5.343160543365778,0.09566303635188067,1,1,13.68606418343219
213,213,6.473813142668412,7.713741542375111,1,1,18.317350753096886
214,214,2.078560043478644,0.4940331397302322,1,1,17.34102101801102
215,215,0.02012855742864139,1.9661036674997057,1,1,23.712300810647356
216,216,3.206851146010327,7.795716806545943,1,1,19.317242942844047
217,217,5.319679184003348,9.521405963631027,1,1,21.505898372617008
218,218,3.6991009916934434,3.76136782080015,1,1,17.711396389792036
219,219,1.8307138300818337,6.510501935905232,1,1,12.332285055743208
220,220,5.934024420059759,4.855244789410326,1,1,23.51444268600025
221,221,5.213186971133407,0.399958014403643,1,1,21.64777907253073
222,222,7.764344799655168,0.4845258652116258,1,1,21.791288093476048
223,223,0.6820350988509305,0.5319072456503515,1,1,23.30692023859929
224,224,6.343832540605857,9.42538635888536,1,1,17.77765155923801
225,225,7.033702481125793,2.3992260629608406,1,1,20.73605800807357
226,226,4.837141422682731,6.10408545306181,1,1,18.9756198230777
227,227,7.713593499252562,2.4150329984910055,1,1,19.95734861952532
228,228,7.459679680778105,7.015506799074802,1,1,16.52931518618519
229,229,1.0136077114223696,0.0,1,N/A,12.656692783032188
230,230,7.793186703344428,1.9767996631970386,1,1,23.76922869819888
231,231,1.0442920089462915,2.443680816040801,1,1,12.54158939044704
232,232,5.6905351376738045,8.08169365024073,1,1,23.92839665535393
233,233,2.6835954932938666,6.2364470067600255,1,1,23.890129359051006
234,234,9.522731087031431,7.8309851040152,1,1,23.745161053566388
235,235,4.178865835536776,9.783627615307937,1,1,23.2951598866103
236,236,9.30371108820778,7.368655444650656,1,1,19.376153551062576
237,237,8.885596976785914,5.315139938429984,1,1,14.587238137110765
238,238,6.355087946618093,7.7732858109415695,1,1,23.55026284008018
239,239,9.278935888538921,0.0,1,N/A,18.319661233550743
240,240,0.0029811271631097203,8.930015606501776,1,1,13.196311543053675
241,241,9.351979398115077,4.333612677401652,1,1,17.20066346718239
242,242,9.274113341507142,0.0,1,N/A,19.907068706834547
243,243,3.1790829388650454,3.6383870447269526,1,1,20.09953189330561
244,244,5.424291933830173,2.616410392840822,1,1,17.5732570745446
245,245,5.58702617621636,1.949999034318547,1,1,10.861489155995091
246,246,5.486552250585137,8.384378644043814,1,1,14.075275102862026
247,247,4.190630271211599,0.5067591151544404,1,1,12.315041669338504
248,248,0.2827080386103398,2.797479639056445,1,1,19.376886148370275
249,249,3.6166744836086107,2.6709685711530264,1,1,11.892590729945294
250,250,3.400933085692585,6.656509231618224,1,1,21.077468694118544
251,251,1.2581769042141056,0.0,1,N/A,23.433964611694847
252,252,7.788451654352755,7.489976038073425,1,1,20.7661782152912
253,253,2.077118273089683,2.5432836260688774,1,1,10.709029630050242
254,254,8.174940077392085,7.035597125401143,1,1,21.643585888435663
255,255,9.0717749815504,9.04386391267131,1,1,20.935379320111515
256,256,7.520331632620242,6.935688678190589,1,1,17.88516587030989
257,257,7.461062408938676,0.0,1,N/A,17.057053109054433
258,258,6.234782983385663,0.5450090880292946,1,1,23.445110898372256
259,259,0.08513683309555709,4.278918633562339,1,1,13.89554319726075
260,260,1.884634046428224,9.552750844527818,1,1,19.127925339571405
261,261,1.5308070222240544,0.0,1,N/A,21.050585868962678
262,262,3.2711758548317604,0.0,1,N/A,16.991253846387668
263,263,7.969577839809718,0.0,1,N/A,13.71773694556476
264,264,4.739255908514139,6.993542049643347,1,1,16.716740068306514
265,265,9.87320823983043,2.4112877544563514,1,1,16.49101116625579
266,266,4.50380507018859,0.0,1,N/A,19.17503383515881
267,267,1.0031929041864673,0.0,1,N/A,15.009931706822144
268,268,2.0203878377327866,5.611183398869186,1,1,15.671995154844184
269,269,3.932224187180217,0.0,1,N/A,11.828412077747906
270,270,3.224935258213879,8.185529451258702,1,1,21.309204323738243
271,271,4.109906207019644,9.188637090365413,1,1,14.724102254529797
272,272,5.068462121534748,2.864872352972838,1,1,16.69868370357296
273,273,1.6103291308075574,4.522308991459091,1,1,12.778789036979592
274,274,7.016966130657528,5.017482165874437,1,1,17.29748758968968
275,275,0.7642602151811351,7.206269290241204,1,1,23.198177070998344
276,276,5.273971975044459,4.013369584804643,1,1,19.140483934633266
277,277,4.260988947518024,8.720384994487599,1,1,15.143197372793045
278,278,1.1845471532031537,0.0,1,N/A,21.099206398055962
279,279,9.082307691018938,0.0,1,N/A,16.120517192915358
280,280,3.5067948918693457,0.7412876325775231,1,1,19.0596305528252
281,281,8.538591601257254,7.272640165944917,1,1,17.286247986991516
282,282,9.976199861887196,0.0,1,N/A,22.014778874021133
283,283,1.0252776910222061,5.442267466242447,1,1,7.9162118848436815
284,284,2.949102061313449,7.020161877475197,1,1,20.80685479127252
285,285,0.6160344400336959,1.933981040083248,1,1,21.34561070987517
286,286,7.887664807664371,9.696767852347865,1,1,20.821065212279713
287,287,2.801517327062173,1.688362957100149,1,1,21.204238069986562
288,288,1.4758068743503472,2.8043649048108445,1,1,19.139489699218142
289,289,1.4350523659525483,5.401058653086769,1,1,10.022375532032818
290,290,7.192069212366401,9.544865903828782,1,1,16.834706371879165
291,291,1.7860948199816495,5.540793648471739,1,1,18.645612690824308
292,292,5.831668929076149,0.0,1,N/A,18.791414988396042
293,293,9.092491702864566,9.260824528133899,1,1,22.729093562419138
294,294,0.8868011185147462,8.305999129015934,1,1,21.195826737587474
295,295,6.90481659447782,5.10326008914455,1,1,23.544913824231287
296,296,7.314270754702134,3.2298264124288254,1,1,11.351592152567733
297,297,3.910539376003521,8.920869960124111,1,1,20.91467172703028
298,298,1.084359685570211,6.649390592211216,1,1,18.220618863027703
299,299,3.4106760344324316,0.0,1,N/A,13.17759936896224
300,300,1.1790834664221206,5.531642534403355,1,1,19.61046707454961
301,301,6.367179025521788,0.0,1,N/A,18.918694023549516
302,302,4.3007888852762886,3.0331908846277598,1,1,12.6456393667507
303,303,4.669021595009307,7.958023827964355,1,1,18.642151405445553
304,304,2.7656317975858133,1.5076738101913423,1,1,9.667358987661968
305,305,7.1509393041150195,2.1752925526234,1,1,22.481924962660514
306,306,1.5798411030467985,1.1842595220294372,1,1,7.702761871792456
307,307,1.500256103257277,1.0203861258829328,1,1,16.382102601287272
308,308,5.651913763585478,0.0,1,N/A,20.92973813026707
309,309,9.988317053789,8.423237515591405,1,1,21.57525903581536
