,Job ID,Stage-1 Processing Time,Stage-2 Processing Time,Stage-1 Machines,Stage-2 Machines,Due Time
1,1,6.467760267438289,0.0,1,N/A,19.780354167553803
2,2,5.209045174009096,3.3597375846417377,1,1,23.80943468071353
3,3,6.348474819087286,6.80662569149987,1,1,13.433865146757471
4,4,7.604044533422112,8.696130097941175,1,1,18.285273649089984
5,5,5.677416530345981,3.9021822087976155,1,1,20.817656439360903
6,6,0.025991631211377264,5.499352514003171,1,1,12.842464114225049
7,7,8.089727822658658,0.0,1,N/A,17.941898255287125
8,8,5.918216925720361,6.778929294589789,1,1,18.08440854624865
9,9,2.9818086432826707,6.80585251702349,1,1,14.388174556802747
10,10,0.0813918282285786,6.495822590963663,1,1,13.639406262799596
11,11,5.246606182496651,1.5306788199286891,1,1,8.246199956981467
12,12,2.342135284372644,6.101596499160849,1,1,16.816798407275535
13,13,8.952822768871062,5.315350659904886,1,1,16.594753265378948
14,14,3.9462988408087063,0.9770025317470166,1,1,12.037850348889988
15,15,8.332713490016186,6.258101364852646,1,1,16.394795459367323
16,16,7.994124120853519,9.423016447337963,1,1,19.73588402758114
17,17,8.361688566349889,1.5944304119373287,1,1,11.95894451211337
18,18,7.630896987616635,8.127683471151194,1,1,22.278622639786466
19,19,7.586096219306517,2.921288939546871,1,1,22.553389837594672
20,20,7.213134639727322,8.882952436816453,1,1,17.898341381221897
21,21,2.6808594623395265,7.176292947213946,1,1,19.1017987243847
22,22,1.7726606775780929,9.750772990685505,1,1,19.70877544132002
23,23,5.579404498049286,2.7719296743456887,1,1,15.433538501039358
24,24,7.913299627141352,3.6936470592413793,1,1,19.90368282096945
25,25,0.2223943696278463,0.5876995531890594,1,1,3.5823401754891346
26,26,0.19860183822765665,5.598629462010133,1,1,14.324564315357312
27,27,0.9271211712660687,0.0,1,N/A,12.918320533639818
28,28,8.9113842742059,0.8994151342941692,1,1,16.869462755446985
29,29,4.026251356145729,0.0,1,N/A,20.393825630353696
30,30,4.666486781950865,9.56553886331932,1,1,20.32837000853405
31,31,8.178280469469618,0.4809437854246934,1,1,17.137961241598568
32,32,5.875856873200206,6.058307935442816,1,1,14.764950714465424
33,33,5.437674066203915,0.7168580908871869,1,1,21.810596326319253
34,34,4.646948233358006,7.419676162686076,1,1,21.60463132362819
35,35,3.0870425441457074,6.598465541823748,1,1,10.261550844214378
36,36,7.7906919166784405,5.4532053644181495,1,1,19.697443343187604
37,37,8.595791225594878,0.9058860924829137,1,1,14.596582688944801
38,38,9.516679675881797,1.2212688215490763,1,1,22.863117063534823
39,39,0.8843676835570535,0.0,1,N/A,7.753328989388676
40,40,8.113185431557744,9.790299566732477,1,1,22.937245154953466
41,41,0.4387242166820027,5.163003329687435,1,1,8.922804606346604
42,42,4.569162419217592,8.788518110750907,1,1,14.470880084023838
43,43,0.6470809879934081,9.855074886441216,1,1,12.7259790949062
44,44,1.631967910201203,8.737808033043983,1,1,15.137364228784008
45,45,7.026214289005593,2.2003770718287496,1,1,20.240343245043952
46,46,0.5567036569296835,0.0,1,N/A,14.168662035631169
47,47,4.081747857983303,7.5076489156370165,1,1,20.74943786424459
48,48,1.7115497774827126,6.746190890452292,1,1,18.7130168918467
49,49,6.617231110251796,8.772651965143957,1,1,23.12399581390209
50,50,6.979344884558639,0.3446793000311188,1,1,12.155251190716694
51,51,1.0921146810253157,6.187769565690672,1,1,21.70961736576505
52,52,7.6081389390315675,9.068404567786668,1,1,17.44211411046258
53,53,3.0341118945720416,5.424107915086362,1,1,21.097386344409443
54,54,9.907420611379923,6.14548406633141,1,1,21.71340912697554
55,55,5.699892012746693,2.6179679238906473,1,1,16.305104524432952
56,56,6.863815709605056,6.465414320767535,1,1,15.882475190323163
57,57,3.4481093966635843,0.0,1,N/A,5.303565603340127
58,58,3.5153819499270145,6.683937607724704,1,1,17.251706935784274
59,59,9.689973723827215,1.6466404851650907,1,1,21.51409795989671
60,60,5.906740683784991,4.168933169775527,1,1,15.046735372219139
61,61,8.329082518083158,2.9162340112984877,1,1,16.761185829450458
62,62,2.05284141846664,7.391734629761491,1,1,16.397459848429822
63,63,8.163698169765699,4.682139268657977,1,1,13.552402749188875
64,64,6.2605101062411155,0.6278163925421387,1,1,17.101782540293737
65,65,3.0482377417530615,7.297580736825778,1,1,20.669614474337443
66,66,7.839289496539552,2.915026677174646,1,1,23.334470711835117
67,67,9.486792289165123,4.757553212546206,1,1,18.80986249075922
68,68,6.606627407720538,0.0,1,N/A,19.016183473469898
69,69,8.237862061674404,0.010867050522126442,1,1,21.730835563740772
70,70,4.620220692410281,0.0,1,N/A,20.78634957484959
71,71,6.80716028675049,6.77926158903704,1,1,14.75528442552364
72,72,0.6191458994939925,0.0,1,N/A,15.120175530371235
73,73,7.030324670935403,1.4715834016209373,1,1,12.335745966979642
74,74,8.123456456136173,0.0,1,N/A,16.943394737878652
75,75,4.658548331006514,7.229198767111961,1,1,14.975498163514999
76,76,0.6699642851737309,0.8928687511274869,1,1,5.834268263444736
77,77,4.985005447578742,0.2175703925816619,1,1,22.723160320009026
78,78,9.190029218506067,2.575894167845072,1,1,18.368043562377167
79,79,4.167066762094094,5.88616426882374,1,1,17.327448186416408
80,80,7.052108875192564,0.0,1,N/A,17.754593509728053
81,81,9.48632635122238,4.2821445063195265,1,1,13.896579086121772
82,82,6.221852791385789,3.334320165787179,1,1,23.710746305251504
83,83,5.0409154979423585,8.86886407604399,1,1,22.010376913477707
84,84,6.8718177688065225,0.0,1,N/A,17.267979061704096
85,85,3.962587924820901,6.989118789836284,1,1,16.663113644859273
86,86,0.7290085232479904,4.5740408677870565,1,1,7.802641664974756
87,87,9.779635188178489,4.210248847698759,1,1,22.12411229939045
88,88,5.188983559695634,9.382760259012485,1,1,21.232267253590177
89,89,9.258647911208248,8.636507789152999,1,1,18.84775559934009
90,90,7.084782960448633,8.38957397704498,1,1,17.08102168562214
91,91,5.7122012173387695,0.0,1,N/A,17.82671544444412
92,92,4.807022858568082,0.0,1,N/A,23.754817327228093
93,93,1.0865662606159687,6.032507723489897,1,1,22.095035092520455
94,94,3.1752123841864313,8.678571446751178,1,1,19.713998253679353
95,95,2.506628069741951,1.2093622035088492,1,1,19.91963847205319
96,96,1.9277715209715773,9.225563848666088,1,1,16.805749939362528
97,97,5.193990281974072,5.183002353534791,1,1,21.3350356145543
98,98,3.7544531909063927,0.0,1,N/A,12.401681057733406
99,99,3.695039074547352,0.0,1,N/A,11.736502281582016
100,100,3.38346711882623,0.6511524402241675,1,1,10.158052180655208
101,101,0.30674260821415,5.911702687140133,1,1,23.03639158758877
102,102,4.000100102285259,7.558297578083154,1,1,15.295161113741678
103,103,0.5178052495295571,7.368966134332739,1,1,19.57706446366769
104,104,9.832829618568555,2.416296586593293,1,1,23.307108672545624
105,105,7.422682849803524,5.070644326276975,1,1,21.268692015993807
106,106,7.144041019871931,8.793359119838422,1,1,23.37023845113891
107,107,0.6860801632816838,0.0,1,N/A,21.997103014319116
108,108,5.461963757252142,6.518824581246672,1,1,14.47594077095135
109,109,1.9008558383214336,1.0629875399521882,1,1,11.116985126683115
110,110,1.9448289788517081,2.895278016925235,1,1,22.04285089436939
111,111,5.814862401582531,2.8649624663085236,1,1,16.033006263877187
112,112,4.640141540301977,5.707564952037929,1,1,13.53119350666191
113,113,8.230503357437557,8.581219316175865,1,1,21.57249001244173
114,114,3.779721363295425,2.89049204922856,1,1,17.649619683564637
115,115,2.288644248290309,1.8055872359745073,1,1,14.013755393103914
116,116,7.713548690055001,0.0,1,N/A,18.832697054649042
117,117,5.609358930088426,5.4672236182230085,1,1,14.333621190626815
118,118,4.796239762412932,2.984769713818869,1,1,16.474103729998554
119,119,8.823124835958872,5.702792362554616,1,1,23.468445883883824
120,120,7.145229121022696,0.6551439899829359,1,1,11.99182368295103
121,121,4.389967691014993,3.258200234716415,1,1,13.203599052854468
122,122,8.018855780599957,0.0,1,N/A,19.6041965003651
123,123,3.347198046573001,7.549363660633843,1,1,14.554271957960445
124,124,9.14970135590583,0.0,1,N/A,16.591280095868967
125,125,4.668306213299313,2.337805520923304,1,1,11.303411248092658
126,126,9.187012018013185,0.0,1,N/A,18.874238343321377
127,127,9.342679135708917,5.00580786266613,1,1,17.1970812686793
128,128,3.058430635744591,1.3236713679162615,1,1,20.713634149897374
129,129,5.033086717566604,1.6183285915897838,1,1,15.630124217560653
130,130,9.970858326946697,0.8602280931350592,1,1,20.279977670682783
131,131,2.754322964238407,0.0,1,N/A,20.747096525323634
132,132,8.80090684118038,3.334665684323138,1,1,22.297704664800428
133,133,8.663845328731364,8.826795701287857,1,1,23.327515711905708
134,134,5.7877351349841835,0.42377516254204606,1,1,13.692738973432942
135,135,6.663245362163693,8.18958696221555,1,1,20.986216578594952
136,136,0.18053139003714413,8.412523774843216,1,1,10.793887795696582
137,137,2.3239604186278227,2.518463431613991,1,1,13.183640789911726
138,138,1.6870451230099148,2.609466775678536,1,1,19.888778420887224
139,139,2.77318743038793,0.0,1,N/A,23.68836823788619
140,140,5.965659197936244,3.215141880702197,1,1,11.05687779653385
141,141,7.941422058228074,5.2583567406432055,1,1,17.34539848093391
142,142,8.258166832143555,0.0,1,N/A,19.253659792579644
143,143,6.431606491527076,9.63545215305691,1,1,19.37949560201733
144,144,9.132218181678207,2.057941895206442,1,1,15.254011506522847
145,145,4.2615164394845255,4.051278480788603,1,1,13.611655760522602
146,146,2.0232295298537917,9.567754995419833,1,1,19.17466575097433
147,147,1.2946291119153386,2.6210439930783402,1,1,7.876224998882266
148,148,4.532646610371481,4.030055563844584,1,1,22.819775416251375
149,149,4.928296278585935,3.6083867038676054,1,1,21.685643905666254
150,150,9.833639403610965,5.23448496861319,1,1,23.057327012587315
151,151,0.7171427150379717,5.726274172916604,1,1,14.809925336680976
152,152,2.644495667364828,8.581276157880817,1,1,13.740177439371159
153,153,0.04493268078586188,0.0,1,N/A,7.322680123452242
154,154,0.5550733204890024,4.650338663601722,1,1,20.101036892860435
155,155,3.7633587430052575,4.895817048587576,1,1,17.338784574018764
156,156,2.1434899057226864,5.131570817394472,1,1,14.434288925481404
157,157,9.797172816830951,8.646109494260019,1,1,21.761304538615377
158,158,9.591344348854006,7.518000538317836,1,1,23.247776643389017
159,159,9.325131573386793,4.054113853029248,1,1,17.1640737441777
160,160,6.8117144266577645,5.011032275760768,1,1,21.25949053664825
161,161,7.027706665706117,0.0,1,N/A,17.100055514527117
162,162,4.996617115000758,0.225546968002599,1,1,10.683258948510954
163,163,8.21916454006312,0.3950670027115999,1,1,13.25120235893071
164,164,8.320768252852028,4.4251468990365765,1,1,21.680609970872865
165,165,1.1360984535259022,9.24505431713912,1,1,20.76089195275334
166,166,9.724529664145175,3.297124989523088,1,1,15.648986695020856
167,167,4.644905387916701,5.267876331189899,1,1,21.664137599719957
168,168,9.946315144236122,0.7871865356713448,1,1,14.487544958632514
169,169,1.3594815839028462,7.668938083547881,1,1,16.472214096111117
170,170,9.020130739808918,0.0,1,N/A,19.213421901994472
171,171,4.043927209250864,9.208157005280722,1,1,15.872250118975264
172,172,9.27995538182622,3.4019099570489586,1,1,13.761202304558095
173,173,9.571937405712225,4.715041022674427,1,1,21.75550368373305
174,174,8.628229718402633,4.954709211048519,1,1,23.245994882337783
175,175,4.386402968031618,5.989864707816098,1,1,12.228874673395685
176,176,7.375663261418611,7.154655308402943,1,1,20.533441936359424
177,177,6.588112022272923,8.797495842657488,1,1,17.527027278760137
178,178,0.9015123710383421,1.4175681515006489,1,1,16.083528034629417
179,179,7.320147528210853,6.892008417526789,1,1,19.698049621399385
180,180,8.992252481406151,0.0,1,N/A,16.807582933322553
181,181,2.337680579081062,1.1427131183537065,1,1,11.983312594094276
182,182,7.974549578228971,0.5517260605792029,1,1,21.375604397372282
183,183,4.250881924366357,7.939273900061989,1,1,13.31644755591568
184,184,2.039213804166656,1.1949004666209284,1,1,16.275439543432988
185,185,0.7206063585440559,3.252456069107624,1,1,20.862747566035516
186,186,2.167371616726478,4.695824507465177,1,1,10.190565155397085
187,187,4.759594760276446,8.214493890545612,1,1,19.882678999790688
188,188,2.564376811745541,3.585849002201086,1,1,13.193686433823881
189,189,1.7002835524271742,0.16468999653195704,1,1,15.172253284619698
190,190,7.645360196008638,3.983413655030288,1,1,12.771114420333172
191,191,2.9615004042810944,1.0441691829087973,1,1,7.591224274723496
192,192,1.4159829298688098,7.955097538368011,1,1,12.72421740420332
193,193,4.849751345665437,6.755122036392605,1,1,20.38361021966014
194,194,0.0028781393827648216,5.876628384158433,1,1,23.353236164403643
195,195,8.849859192793673,6.625161890024048,1,1,20.480126718878406
196,196,1.179820973120479,0.0,1,N/A,15.806696538452776
197,197,6.724522357047662,0.0,1,N/A,17.049876269570948
198,198,9.172057963100057,9.084968992899691,1,1,20.717003107148074
199,199,7.264113241714315,4.3328920580118035,1,1,15.691250901799794
200,200,3.9833044527945427,4.691908914207534,1,1,13.611095834809932
201,201,8.977696423905721,9.461381259660982,1,1,22.30601356344761
202,202,0.6882930361530726,0.5310430211322015,1,1,20.7003774240925
203,203,7.577414550707963,0.0,1,N/A,17.911158409819407
204,204,6.755550724117981,5.554293105281101,1,1,18.0572349118162
205,205,5.018032765542872,0.6362339888555524,1,1,7.412402716377707
206,206,4.897315446753051,9.926151567348247,1,1,18.36693506003362
207,207,9.589052105375597,4.627559474071694,1,1,21.78000882845772
208,208,0.1596794022120651,1.6927449314019016,1,1,7.644580985269012
209,209,5.478680805099819,6.484459260689071,1,1,13.132032520326526
210,210,9.943080646865841,9.409263980320155,1,1,21.828319289384407
211,211,7.129140018657775,0.0,1,N/A,15.54072552255321
212,212,2.7278277724888333,1.6636731926934123,1,1,20.198789154359474
213,213,1.2510864593272064,0.0,1,N/A,12.869592852033072
214,214,5.867019020018875,3.829569682453701,1,1,13.74445855030965
215,215,4.350623515174611,1.0187110805795896,1,1,12.917209475156389
216,216,5.123298396651812,0.9036536114315152,1,1,18.339315454894145
217,217,1.78997792481143,3.4141905840621813,1,1,17.977033711947765
218,218,5.356460028902204,4.858526177845423,1,1,22.094135839606096
219,219,6.232154933769648,5.5767728756512245,1,1,12.303195162815584
220,220,0.39823269400316774,7.212336006988349,1,1,22.432952435467932
221,221,7.118022621331673,1.2673782022432534,1,1,18.60548786936181
222,222,8.004873755293035,7.900892569886041,1,1,16.969439860035806
223,223,4.913622261205407,4.840324851210336,1,1,20.806624545739076
224,224,4.3138711401703915,3.2836268736710306,1,1,18.680793173598474
225,225,6.093454488080612,4.256982259960655,1,1,13.72287794332
226,226,1.7108381861458566,2.4084026782647827,1,1,5.939254831814313
227,227,5.050598603858415,2.8833131374265184,1,1,21.99484439003612
228,228,9.219974922852927,2.577496811714065,1,1,21.27806249239756
229,229,2.489653638494408,1.7253304828410154,1,1,16.63755459727816
230,230,6.442061642851265,7.581146887910741,1,1,16.705899114325014
231,231,0.023851371588724524,0.0,1,N/A,5.323323937545351
232,232,6.625414899410076,7.079354789838743,1,1,15.047367081988254
233,233,4.2475167639690445,0.0,1,N/A,14.190670050375113
234,234,2.582686388569544,9.453168590379292,1,1,17.734765987786098
235,235,5.782945647116087,9.74755719900221,1,1,22.246303985668725
236,236,0.023591516215080155,8.731186570872927,1,1,11.848921896305015
237,237,1.1095121706922217,1.0139087228461985,1,1,6.57427910941722
238,238,2.5977379220123553,0.0,1,N/A,17.09002537160635
239,239,7.512119110179412,4.084013015965601,1,1,18.91067922267637
240,240,9.418502199934485,3.4453874615327673,1,1,16.847817729118983
241,241,8.853815610566738,7.426403996249991,1,1,23.52221900412474
242,242,0.2848357290267056,9.640028808784828,1,1,13.19060152197823
243,243,2.371849244899542,0.0,1,N/A,13.101612631284844
244,244,6.031558257728557,5.320313570636024,1,1,23.428605166349058
245,245,7.3525366745281175,0.9813780646147707,1,1,11.762214210214212
246,246,1.459286969675958,9.804694850625356,1,1,14.8162894392514
247,247,7.503988186487669,6.474459780114421,1,1,16.634471807847298
248,248,5.618915558075711,4.038284507612225,1,1,15.431726554567193
249,249,5.678168310826938,2.5628783212061466,1,1,11.934029206957435
250,250,2.6451489283394625,3.1227005664481435,1,1,7.091543990031352
251,251,2.1845458021990485,6.535931009389703,1,1,22.877102813097245
252,252,9.468514694106556,7.18620814696351,1,1,20.375399400284195
253,253,6.154256558640223,6.3934404235940825,1,1,18.38927683791455
254,254,5.6627772965286685,3.8057177558070765,1,1,14.82267152139203
255,255,6.643766874554899,1.29715223806799,1,1,13.159394199734397
256,256,3.0791561876406472,0.0,1,N/A,8.343228603585802
257,257,9.470869136599717,0.0,1,N/A,23.87910433932783
258,258,1.1603731738550405,0.0,1,N/A,20.20996349794532
259,259,5.886244986944044,5.133446713808606,1,1,23.041219732617126
260,260,8.97160534922077,1.3066741309807473,1,1,13.037357800793362
261,261,0.10128891359248882,3.2159504929894798,1,1,13.081605779423649
262,262,6.438224816783338,3.025729809264359,1,1,11.042400577768722
263,263,8.725612289835372,0.0,1,N/A,19.44759510996814
264,264,3.298939449915481,5.222640150651751,1,1,12.678383511912106
265,265,9.151673893700655,5.726743369731752,1,1,15.61871338564907
266,266,1.1895233449630427,8.791013232884735,1,1,19.451764275882184
267,267,7.1419430312248355,4.371450483228221,1,1,18.261331004020914
268,268,4.353744229450237,1.6751268897801708,1,1,6.739146728582545
269,269,0.7131429178698367,0.5886094196698133,1,1,4.4655239046636055
270,270,2.3606892040268823,1.6854901850772785,1,1,21.009815206918002
271,271,2.857647599118401,4.853413061605551,1,1,15.005376061392642
272,272,3.1405752208789317,0.0,1,N/A,13.782660356272043
273,273,6.282085273679083,0.0,1,N/A,23.3853775748966
274,274,5.969498574863291,9.738864963903906,1,1,20.891992442200788
275,275,5.6882429185952965,4.797590270810881,1,1,14.48406280501897
276,276,2.4841095482081554,0.04620898023091624,1,1,10.08585392507527
277,277,0.8479942944814589,4.872911189158663,1,1,6.116514893751563
278,278,5.556193584024527,2.9943154096640177,1,1,22.19166009521426
279,279,3.17115975057734,0.0,1,N/A,12.862188745573356
280,280,1.281843719224064,0.2914147601697037,1,1,11.255304506864427
281,281,3.553672132631398,2.6626493272343077,1,1,17.311967793517113
282,282,9.241041978375465,3.1226070512777335,1,1,23.698636628810146
283,283,6.167496822928468,6.438761702341224,1,1,23.71432089413223
284,284,0.8013688731869906,4.759311504057559,1,1,18.95289524512436
285,285,7.465207674892734,3.5137575305670454,1,1,12.039886517978717
286,286,1.3873006749339523,8.135651569145775,1,1,14.77127505759502
287,287,1.2969971634990485,8.694838645516112,1,1,20.27607827901693
288,288,9.84919680288693,6.130741229921415,1,1,22.587972406973595
289,289,8.710786479265005,0.0,1,N/A,17.32428555314308
290,290,8.277052117054938,0.5861091354879433,1,1,19.99082713911637
291,291,7.975045014363874,4.509543829109223,1,1,16.314575466068497
292,292,1.576805405213374,5.450891630983658,1,1,12.902534889415147
293,293,8.554019857600967,6.79541156856443,1,1,22.849603401358554
294,294,3.37493804395352,9.067327755674434,1,1,14.66144764093929
295,295,0.37942663171790625,2.286345812362608,1,1,11.829376853183081
296,296,0.05376776942096151,6.7118834140269845,1,1,11.703749966304619
297,297,0.8046283360089257,5.413043538983392,1,1,23.915784852678755
298,298,8.1913899289945,4.258716534881868,1,1,13.349848131920995
299,299,7.197411694978606,3.9551958563165455,1,1,13.000533191099468
300,300,0.5905522858707979,7.584420057554359,1,1,20.737664712015302
301,301,8.462456976758379,1.4343204318080882,1,1,14.508033939981928
302,302,1.335706312089756,9.40593081245945,1,1,14.898390181919666
303,303,3.3792958664745276,2.1696077894960264,1,1,15.978402268720169
304,304,0.21162574695924086,8.487322088535153,1,1,19.476518601883647
305,305,7.814411999108176,4.164479939573677,1,1,16.822397688762198
306,306,5.369383639196093,9.2140747778906,1,1,19.084660349034394
307,307,9.019145922233777,0.0,1,N/A,19.592781884823015
