,Job ID,Stage-1 Processing Time,Stage-2 Processing Time,Stage-1 Machines,Stage-2 Machines,Due Time
1,1,8.631621091220234,8.360662520434891,1,1,20.31567048781791
2,2,2.6695386573108184,0.7507852289149586,1,1,14.628223587289247
3,3,5.544371139834093,8.588146880026672,1,1,20.960513808343084
4,4,0.29022879567254023,0.8227986263250897,1,1,19.167222677589574
5,5,3.5079706033038005,0.0,1,N/A,11.026237452246718
6,6,2.3632714179123493,4.582526584592878,1,1,15.3813740600424
7,7,3.947768898196602,5.035193258887196,1,1,17.40090483302872
8,8,9.06313674984926,2.893796459696242,1,1,13.806603797867131
9,9,5.430189962098188,6.235598708694948,1,1,18.961669343245262
10,10,7.1460491722396045,1.2432031901303864,1,1,15.243950634719226
11,11,9.135764266065907,8.746185434435787,1,1,23.329117124662474
12,12,6.6608016993476635,4.898955401248352,1,1,12.798719251177097
13,13,4.439998232795503,3.835893787905602,1,1,17.261973359791714
14,14,5.502383675951636,0.596101668857788,1,1,6.420846262113126
15,15,0.6057593582472942,1.747839934648504,1,1,12.726707010839867
16,16,3.602752302615282,0.0,1,N/A,22.24105834364711
17,17,7.3370204420791705,6.934413478473384,1,1,20.381560062544597
18,18,5.438047672776523,0.0,1,N/A,19.984790219845525
19,19,1.7886737371400074,3.2914811194848346,1,1,10.672380792996783
20,20,2.52623743676613,9.409016175253203,1,1,18.407321716175495
21,21,8.925331311029481,2.266136097792547,1,1,17.034800323760717
22,22,6.962860779997035,6.7835604721452505,1,1,22.3543741346268
23,23,9.160960355449141,3.5743061523203465,1,1,20.149317568674252
24,24,9.457828826596282,8.363323208386417,1,1,21.175060248192082
25,25,0.6818034778484261,9.865024253642648,1,1,11.095179478744946
26,26,6.5153604689424105,0.9545379235884766,1,1,12.814556729443037
27,27,7.199032683529674,4.464658946685772,1,1,17.060278434517492
28,28,6.900316220556146,1.563550907704272,1,1,11.852505306586389
29,29,3.0505075974936267,0.0,1,N/A,12.99832092578868
30,30,9.781290877167411,8.906398585736287,1,1,23.723185141204844
31,31,6.794738486011608,0.0,1,N/A,14.335960223294137
32,32,8.928531046445903,1.0653677076417734,1,1,22.663301646813807
33,33,5.386849766702429,0.0,1,N/A,13.764009603479119
34,34,7.783393014570539,0.0,1,N/A,20.847094487874045
35,35,0.7238839464898394,1.1107431095716336,1,1,9.408250737747682
36,36,7.034062611946753,9.442425268688693,1,1,23.36613723018159
37,37,2.5594869347628837,4.958925084319779,1,1,16.517738305442876
38,38,3.670123951758315,9.525064414953468,1,1,15.944451679565528
39,39,2.4229982993933605,0.0,1,N/A,13.215375218083853
40,40,5.276537090459924,9.273063710048444,1,1,17.421423661741418
41,41,3.851294073404359,7.885881097263203,1,1,14.581761843463552
42,42,4.025577221458651,1.2216610648996984,1,1,16.122018394281074
43,43,6.101368793411977,0.0,1,N/A,9.082740290560105
44,44,9.534388926714353,1.2610825855961938,1,1,18.004037568817935
45,45,5.011212675210116,3.583692742827065,1,1,9.59451388176372
46,46,9.573559025233509,5.729029216135292,1,1,16.792225917981217
47,47,1.4885637344685543,0.0,1,N/A,11.85980632219901
48,48,0.18350009691921687,8.580081450255868,1,1,17.48949872009394
49,49,2.6153944207031654,0.4505239100599612,1,1,22.753588279042372
50,50,0.3883344000064637,8.46512316226128,1,1,18.597715161948173
51,51,9.300233095468244,5.713064031182973,1,1,18.415495387781814
52,52,2.689229000958544,3.4690200345356947,1,1,10.974645636137017
53,53,1.3769795188790712,7.884467041995852,1,1,21.053589100152376
54,54,4.5849735535476,4.655443407549852,1,1,16.095694439423095
55,55,6.769483053859432,0.0,1,N/A,15.960339369755475
56,56,8.376382716768708,1.1511958264105038,1,1,21.480612663205733
57,57,8.967394648808597,0.6679340121728772,1,1,11.53564815493229
58,58,1.2472889237141582,3.0456083483655183,1,1,20.48853908758496
59,59,3.034026514918049,0.0,1,N/A,13.38860308195343
60,60,6.343988759205569,0.0,1,N/A,13.472275171290207
61,61,1.1260806953046265,4.69252808427628,1,1,11.141280459533103
62,62,2.2596734870163204,3.313591955743793,1,1,11.731331006897967
63,63,6.348415153708739,0.0,1,N/A,15.27865031287562
64,64,6.441256472398881,8.678821035664102,1,1,19.548690193116634
65,65,5.98596805264531,6.342560218244291,1,1,14.82861815232953
66,66,0.18817322621799248,7.940348805224527,1,1,20.40051239624001
67,67,2.2471052922393264,6.919097222867338,1,1,19.212607264295485
68,68,3.0027163414069657,6.005004857485835,1,1,13.836893453784914
69,69,2.9288855852593376,2.412274301685451,1,1,20.18568012955481
70,70,6.797030569355754,2.231581328358272,1,1,13.616230385568496
71,71,1.6155960267838354,0.13734800095152822,1,1,15.608307187267448
72,72,6.641684014203752,0.0,1,N/A,20.632242742474798
73,73,6.448294851446063,3.962051229657335,1,1,20.01156697909751
74,74,4.347390378328464,1.043910476862574,1,1,9.368960103336988
75,75,4.611162351211139,5.58586453903396,1,1,12.253106752930734
76,76,2.6282718045903075,2.4514156694749802,1,1,8.159484537810023
77,77,3.199017864821452,8.405792890286769,1,1,22.646949023170464
78,78,5.455414972443667,8.09773330450833,1,1,14.25102076185915
79,79,4.367044109084778,6.861871709929495,1,1,23.152898476707595
80,80,8.941402227119994,3.9858043277839084,1,1,15.148927621591096
81,81,4.1982509313754255,5.701966156077846,1,1,20.191901871430126
82,82,0.5334291142834802,0.0,1,N/A,18.919688130359635
83,83,5.526339211781473,8.9935782501789,1,1,17.651891507455005
84,84,6.501384266066217,9.434433420381188,1,1,19.797352721850537
85,85,1.5383084406833103,9.396919278286727,1,1,18.539376867297708
86,86,1.7913770225569203,5.417728415212611,1,1,11.338188575658597
87,87,6.186565067416327,7.225780395100765,1,1,19.77846949106504
88,88,6.381427561132425,0.0,1,N/A,18.69541796437517
89,89,8.289344381817052,1.8023313984561484,1,1,17.71033112528212
90,90,7.351986513485505,0.0,1,N/A,22.267061650715277
91,91,3.574366055222571,4.045299058129541,1,1,15.061122262852562
92,92,4.364824608641955,5.755860998634525,1,1,19.335713446692747
93,93,4.1339295339746425,4.658296605525524,1,1,22.025988998615738
94,94,7.161490249506979,3.1707214644543367,1,1,15.183781892238297
95,95,0.12348639329313849,5.130079766189616,1,1,19.286637809224665
96,96,8.431228418364967,8.071011202738875,1,1,20.45404348947168
97,97,6.469331565740413,3.1984880231374904,1,1,21.617934181510464
98,98,7.689971913813636,8.122635859460816,1,1,21.205742933515598
99,99,7.966226850350283,1.05325134238056,1,1,21.53028518867332
100,100,9.364853400766306,8.148218040439398,1,1,18.26281893150997
101,101,7.604769431053785,5.0606326563555335,1,1,22.52727381123617
102,102,7.374204780499704,2.5927812247229887,1,1,22.643202832951793
103,103,5.161069728820297,0.0,1,N/A,18.782700700215983
104,104,3.986017830884998,2.6465746519326117,1,1,19.442179996510053
105,105,5.41707089442721,9.10489475967826,1,1,14.846555528842424
106,106,8.922462038558155,8.598834350224317,1,1,22.77885132289838
107,107,3.7113732764801144,8.394757372247412,1,1,18.02948996194956
108,108,9.626050386048314,4.325777917192352,1,1,23.77833814037904
109,109,6.7088071438809465,3.629709127724764,1,1,19.885467527065757
110,110,1.437613186344443,0.0,1,N/A,8.131823719406615
111,111,2.9140912318013736,0.0,1,N/A,16.256150144604455
112,112,8.524235125592153,3.033932914918842,1,1,22.354748898230504
113,113,8.788297150785509,4.484123509009217,1,1,20.743979530125685
114,114,9.661234233472461,1.3499526577490462,1,1,18.487143651256677
115,115,7.577233521118166,6.660709248748332,1,1,17.61053224241198
116,116,4.960004338122782,0.0,1,N/A,19.624017974326975
117,117,2.8685167036505774,8.385498824589488,1,1,13.769627688099515
118,118,9.174489998735668,0.0,1,N/A,21.031772350161372
119,119,0.8639165584278508,5.4616682793658935,1,1,17.683458513362403
120,120,0.08525676737821009,4.885898702774453,1,1,7.794058451311302
121,121,0.5225516328593616,0.1821003783653563,1,1,18.636066952881592
122,122,8.356280870518983,6.6551323510313365,1,1,19.680487917661438
123,123,8.98814848487275,5.780078520385152,1,1,21.539838248357196
124,124,7.097677560537107,2.516562745555774,1,1,13.93664833801194
125,125,6.835421868655521,7.876936515386188,1,1,23.27061775582078
126,126,4.435844598159457,1.1968409474327046,1,1,19.20229577919107
127,127,0.36086655330506145,0.5116701730044659,1,1,20.682011023447338
128,128,8.931557903673474,2.4365147349946783,1,1,23.80587038095964
129,129,7.599025971793551,0.0,1,N/A,21.081695401823424
130,130,9.828733646753406,2.533341186029628,1,1,18.48100534201251
131,131,9.649292175545167,0.0,1,N/A,19.166350353798112
132,132,5.216786307084994,8.226796327099416,1,1,13.938595758992587
133,133,6.819154179553964,9.434676510342246,1,1,23.40057445462206
134,134,9.092466717869229,8.070341417415237,1,1,21.289988213619708
135,135,7.944405267575922,3.686946902193957,1,1,15.361841012274308
136,136,4.964298928349598,0.0,1,N/A,22.152149209744437
137,137,7.183584939771653,4.925357399019939,1,1,23.099446237605655
138,138,7.127728872842357,5.930433790443565,1,1,14.323545392818263
139,139,4.218221949893465,4.3757312848313195,1,1,10.400939291622974
140,140,2.7228939441896993,0.0,1,N/A,22.440801279380253
141,141,8.704253907484906,5.333953081092133,1,1,19.480706662981557
142,142,0.0009697081303428057,6.908755707240088,1,1,21.826741074382575
143,143,4.536471955636683,4.022813428643788,1,1,9.294033929538399
144,144,5.579025222014464,9.522265214710862,1,1,19.492718897846935
145,145,8.291634212057845,0.8034647094210023,1,1,9.984250922803348
146,146,7.722066845849276,3.4305173196751237,1,1,18.60403286170907
147,147,1.0338145297083101,0.5744602972708601,1,1,13.97736965766384
148,148,5.055789611065694,4.145227041990275,1,1,20.7138327983557
149,149,5.249432296367699,0.9343042995165973,1,1,14.096914306613225
150,150,4.208384738736849,8.471023338868886,1,1,23.950794497691714
151,151,6.6649329849702585,0.0,1,N/A,16.653655031862524
152,152,0.8870042272579215,0.0,1,N/A,14.587036839629018
153,153,0.26732409240569854,0.0,1,N/A,7.398476361828554
154,154,1.6696074213680434,6.599620802117202,1,1,20.20968322389932
155,155,2.597610707917722,1.7999202303213269,1,1,9.03667168036391
156,156,5.494177925127048,7.0557984844228265,1,1,17.08787561352253
157,157,9.452195197092859,0.0,1,N/A,17.596836910191247
158,158,0.7603859371159827,2.8597510484909683,1,1,6.01973144544205
159,159,9.533010690515642,8.605307761891714,1,1,23.500694498882055
160,160,4.652087441207118,4.540637046943484,1,1,23.861674039847628
161,161,5.07791868858662,3.9697773615561474,1,1,23.333155581620794
162,162,2.7299702181953056,8.216460291148746,1,1,18.31869434224875
163,163,3.6461161003347673,8.231747145922373,1,1,18.531808871768963
164,164,6.0735134788841485,3.642972816010351,1,1,19.58022019218452
165,165,2.753856211369442,0.8704185348117544,1,1,9.160604896213027
166,166,7.433696985141639,0.0,1,N/A,15.425379876775363
167,167,1.7187644364446608,7.492918682464361,1,1,20.835570904564992
168,168,2.153579385669464,9.183212582434827,1,1,17.78340791720386
169,169,2.727589551803664,6.895930547155351,1,1,23.36334041357383
170,170,8.845299261660887,0.0,1,N/A,14.172310801410669
171,171,8.436533265792685,0.0,1,N/A,17.64484610064931
172,172,7.006142112454789,8.778432745747946,1,1,16.186668295189442
173,173,7.978763370691704,4.900179010860295,1,1,14.679661181973735
174,174,6.179453566570273,1.9142066293760274,1,1,21.52161793486073
175,175,3.890103345580945,5.79989573150173,1,1,12.471861048945254
176,176,7.718871407523729,9.20135299488474,1,1,21.873566185498195
177,177,8.685030749811615,8.808323240689816,1,1,19.83258896113861
178,178,8.928504207922698,0.0,1,N/A,21.445167989987848
179,179,1.2745182665027321,8.428141650324525,1,1,10.877583473382693
180,180,2.754439854853208,4.3238487824835214,1,1,20.1174441513999
181,181,0.5941372466288186,2.5658165608636363,1,1,10.898848611509626
182,182,1.2681068772172355,8.958823765847308,1,1,14.215476464877689
183,183,0.12653195661273986,0.0,1,N/A,2.7686109922372424
184,184,4.456670700150828,4.813390978603154,1,1,16.11421864511728
185,185,8.589491588909722,8.993235279362594,1,1,20.751924572914753
186,186,1.4397431580566167,3.4055378366102373,1,1,15.501130914586234
187,187,9.930963053479289,8.141369004347384,1,1,21.001054973676588
188,188,2.7633383647802034,9.679268971369899,1,1,17.202683842408838
189,189,6.833266709591566,9.630178538199877,1,1,18.883704543582386
190,190,8.176675053995915,0.0,1,N/A,20.69894917479454
191,191,5.1681777651119365,9.846182261342749,1,1,18.54636381631689
192,192,8.94621011892053,9.346756984179732,1,1,20.66589145149693
193,193,0.31266602105371577,5.58095245170478,1,1,11.777934436801111
194,194,2.129712430508388,6.617776689747612,1,1,9.050280343043125
195,195,0.4747704916810558,5.395437936670482,1,1,10.194597291004936
196,196,4.414407114931675,0.8210988392931029,1,1,5.414876462732928
197,197,3.304761350193195,2.6872461119703406,1,1,6.335237862470119
198,198,6.618779284540199,8.230711170055274,1,1,18.393554303908694
199,199,6.724748140939976,7.045048377782109,1,1,16.086337337478902
200,200,4.935274474657119,7.854031427239365,1,1,21.057955389168555
201,201,1.937774547709652,5.984474647921162,1,1,23.289290745905078
202,202,3.9652668346610898,0.0,1,N/A,14.22249687469559
203,203,4.934167919840156,0.0,1,N/A,19.237601042182938
204,204,8.427148145135297,4.07958846347788,1,1,22.803065806470812
205,205,6.008156139579813,4.112226947136644,1,1,16.42639475763171
206,206,4.035003821057375,4.360811074084037,1,1,18.87647809755118
207,207,4.861199113025256,0.0,1,N/A,7.606836172558269
208,208,8.766160232786191,0.8347273182468351,1,1,22.463814833616766
209,209,5.975399054247411,6.587971164548993,1,1,19.24908650996077
210,210,4.459439305648429,5.706264875951451,1,1,11.373879882195059
211,211,5.314833428841819,4.703842194962063,1,1,22.995286049439308
212,212,3.4042318707183137,4.138967069568723,1,1,12.33411499377865
213,213,8.089237112283568,9.553556329071316,1,1,21.543534942327796
214,214,9.60265668348493,0.0,1,N/A,19.12372826804822
215,215,6.665866255049422,3.917478506390415,1,1,13.455432235802961
216,216,1.85463167360166,0.0,1,N/A,13.486411910586046
217,217,7.630471793030853,4.4508974356607665,1,1,18.067836706437383
218,218,0.8827222800966583,2.208695706885621,1,1,13.451891174301755
219,219,1.465986270151467,3.2950228138961766,1,1,21.389407089253645
220,220,8.140288112183274,0.0,1,N/A,19.884867566091238
221,221,1.0673222906698765,8.77071361778167,1,1,20.21817140324282
222,222,0.5538130875826075,5.792975193569264,1,1,12.77058138559919
223,223,1.1683749544864885,0.0,1,N/A,8.393088073984048
224,224,9.374122284109491,5.339219018388008,1,1,15.429354577697309
225,225,7.3412698375353616,9.028272623639666,1,1,23.707368076255648
226,226,4.69856963938512,0.4844193225686644,1,1,22.80109450948691
227,227,1.9099851028563308,0.6974261135010695,1,1,14.38168727948072
228,228,3.0755768344616765,7.895429481766256,1,1,12.752328194999862
229,229,6.09752107583175,7.808369611270928,1,1,14.569228527357746
230,230,8.58172675345369,6.036070205664991,1,1,16.075386998037406
231,231,9.097887930309383,0.6579134006239284,1,1,17.7219489690083
232,232,6.795233000266694,6.764829042586099,1,1,13.962492721211012
233,233,9.991532811881756,4.235789423838191,1,1,21.867461168843924
234,234,0.31763486923660267,7.537557876559392,1,1,16.880573920471026
235,235,1.4550554156963058,6.338435061920681,1,1,15.416585126802875
236,236,5.576501149178117,3.0578038747865732,1,1,13.509464341169245
237,237,8.718117028344162,4.437396720112238,1,1,14.185411654274736
238,238,6.192205031661335,0.6830185065800543,1,1,17.209946510701414
239,239,4.203833989523847,0.0,1,N/A,16.476288168429924
240,240,1.8666106735891186,0.0,1,N/A,17.54388132973679
241,241,3.956397540301734,0.8412518511478462,1,1,22.334462038799522
242,242,3.47438781707241,3.2174933373939996,1,1,12.9085277653914
243,243,0.6873696593492296,9.14830458678284,1,1,17.66239071914461
244,244,2.37088856474559,5.170471286906604,1,1,19.602419351913365
245,245,4.563895959555929,5.6874287849760226,1,1,12.626014807760445
246,246,8.764595052281315,4.237526381000336,1,1,13.238074397115014
247,247,7.908316868939846,6.9535618235031755,1,1,19.78128984296519
248,248,6.269717013852292,9.416818669969508,1,1,18.089313990066692
249,249,4.020383067829564,0.589317661171207,1,1,11.742355892779344
250,250,8.371566490026721,8.26388647372505,1,1,20.88865861638361
251,251,4.940446316329078,6.2331989433596755,1,1,14.175027590858406
252,252,2.303563995784309,0.0,1,N/A,5.72017780263465
253,253,0.06371189641445563,0.0,1,N/A,12.618520440105996
254,254,4.754469280469498,1.9741564020708768,1,1,8.642276433539433
255,255,1.7960978385820225,0.0,1,N/A,6.407454192733283
256,256,1.6548878531283273,7.455973187712063,1,1,10.266095044895442
257,257,0.7415368964002444,6.686827981357625,1,1,13.479765764222762
258,258,1.9943535206634588,1.8980115028956646,1,1,16.05908233473874
259,259,7.81509019989511,5.30823704781103,1,1,23.562851692420985
260,260,9.589796123653798,7.14442398786399,1,1,17.571416962808776
261,261,1.2439545802769014,9.78552394680055,1,1,13.946128052745621
262,262,9.011553908813886,0.0,1,N/A,17.98839072299731
263,263,9.9406918679042,9.199135678135972,1,1,22.565524932633416
264,264,1.2531440461267906,1.1531714869659282,1,1,7.9308109750205675
265,265,5.99440779868578,0.0,1,N/A,20.441874281473904
266,266,7.355148244169044,7.493528397304373,1,1,22.398225575157895
267,267,0.7033077201139215,9.132616051037893,1,1,11.636587516189772
268,268,9.51918013144033,7.753387257087669,1,1,18.968674782039344
269,269,4.0916187811921425,9.132275954527914,1,1,19.77765381857364
270,270,9.279782973438104,0.0,1,N/A,15.803772667178066
271,271,2.8885656852793593,3.3559216451541363,1,1,18.739879839275197
272,272,1.210684871763732,5.992101548183365,1,1,11.538129798507255
273,273,4.655833742323376,1.8971297570133017,1,1,14.036800327749955
274,274,2.307220687595253,0.0,1,N/A,17.599832809500214
275,275,0.32131399474772504,5.532907565981507,1,1,13.932933217394325
276,276,3.4208467000881457,1.9816748441158438,1,1,8.839888079190285
277,277,3.4789060360217916,7.251727083220766,1,1,14.755033219207439
278,278,8.67619321156367,0.37131594651955924,1,1,23.332009599737624
279,279,3.744486526440225,5.721355345594255,1,1,10.34061666225925
280,280,7.833985613588682,9.786022108836079,1,1,22.30916191725289
281,281,5.9409152918237425,4.534691068244064,1,1,21.08901303764511
282,282,4.907894695556965,5.66129990402847,1,1,23.023964798005192
283,283,7.608531749445914,8.700710409904168,1,1,21.260421876761324
284,284,8.369250808142148,8.83529657253977,1,1,19.332126384513728
285,285,8.056733268688834,8.348606060517183,1,1,18.267738479323118
286,286,7.167208951357234,8.855383127826709,1,1,22.900005436135018
287,287,6.149356311238971,5.922921156477977,1,1,13.841956108606
288,288,6.539600117474219,4.744883482845022,1,1,23.18314185720094
289,289,6.43078811796979,0.0,1,N/A,20.644982818006646
290,290,5.940457900919759,4.164717824164425,1,1,13.06434044039316
291,291,8.906525370752036,0.0,1,N/A,12.338296821329951
292,292,9.34547266338251,5.617715228464482,1,1,17.186843780722842
293,293,8.981120614732207,5.2645499065612755,1,1,21.216890091451482
294,294,1.7953331628377478,5.533059269199528,1,1,20.583949992750853
295,295,3.2251923817092196,0.0,1,N/A,13.35862776605121
296,296,3.379154029624968,3.192508607778409,1,1,22.074980731079126
297,297,3.679995193175436,4.97369511145399,1,1,17.330207522217904
298,298,7.441978006671083,0.0008600541805303674,1,1,8.602399771881945
299,299,8.435142772370476,9.112969614637887,1,1,22.02109152511111
300,300,6.615220263587288,9.84262663628282,1,1,18.621768618470874
301,301,2.565765644373882,0.0,1,N/A,15.971427000019506
302,302,6.02329606681009,8.053884712053414,1,1,15.72398897721008
303,303,0.1755058956508515,0.0,1,N/A,4.868613942046373
304,304,2.0092074576434724,0.0,1,N/A,18.077786054471286
305,305,3.3571811430239293,4.5607764225917515,1,1,21.62852351816798
306,306,7.6749577515634755,5.543842371912136,1,1,20.821350524582
307,307,4.9102804391681385,5.764059813259154,1,1,20.848392825516882
308,308,3.601260145074882,3.185243962866778,1,1,12.190612174508999
309,309,1.1511298867935515,9.54346962378817,1,1,15.36179629372937
310,310,9.935613818475677,6.824819451518513,1,1,22.654389669450797
