,Job ID,Stage-1 Processing Time,Stage-2 Processing Time,Stage-1 Machines,Stage-2 Machines,Due Time
1,1,5.925686766268696,6.251150330302288,1,1,16.757497721140595
2,2,9.649368318266347,4.197934491373093,1,1,18.20590999949098
3,3,5.465305447055176,2.3045544624981638,1,1,12.954195437001353
4,4,4.547325483550147,8.714899983138814,1,1,17.82548219841672
5,5,6.571883149742596,7.665145652570522,1,1,21.889132205193835
6,6,0.9150432828880506,1.363405907575681,1,1,19.017202221489953
7,7,9.22420953021524,7.77323462773575,1,1,17.935625148856484
8,8,9.989950425204697,7.275456798098223,1,1,18.102540016245175
9,9,6.264984021661699,1.4620380874940264,1,1,17.6916494926429
10,10,0.0665449568694021,0.09472585151040769,1,1,21.282623375466088
11,11,6.3462274912048935,3.304163188143759,1,1,12.921778006533518
12,12,9.185679586256306,7.881830549870026,1,1,23.11658787058622
13,13,0.6939699002934563,8.246724734926255,1,1,11.90280893258221
14,14,6.032717014051013,6.15420351090219,1,1,19.636572901550668
15,15,8.235289064755117,4.835327979239135,1,1,23.811666853375584
16,16,9.397903646515168,2.0657489624035774,1,1,11.681352102828678
17,17,5.83171680327195,6.476966662745981,1,1,18.722852826092787
18,18,6.650179856993498,2.5178475056631653,1,1,17.584966648704253
19,19,8.548263377959717,3.8988161046104777,1,1,13.909479482705647
20,20,6.003102949735303,7.176474593729985,1,1,21.632847678339246
21,21,7.263777393106344,9.764429216691045,1,1,19.61081881949394
22,22,9.593938150316015,5.403635716126335,1,1,17.082536509134844
23,23,8.361357742876775,0.0,1,N/A,21.844968886069935
24,24,0.1003992109050833,0.5573729482712031,1,1,7.607601288593878
25,25,6.064057229682104,0.5404320517417993,1,1,20.83497152972115
26,26,9.98812268090457,0.1375309737438335,1,1,12.583322816551096
27,27,5.889306739564677,0.0,1,N/A,13.458538300540269
28,28,8.408615464275549,0.42291800631704235,1,1,19.758982512650796
29,29,3.903941677663391,7.986895779695109,1,1,13.98037705721412
30,30,7.025579329734521,5.839325387220454,1,1,20.2479948616557
31,31,0.8093898414761658,0.0,1,N/A,15.233650094449189
32,32,4.556717581170507,0.41275294345828883,1,1,21.1458196717146
33,33,8.347815984746445,8.74232289602219,1,1,22.3104706763572
34,34,1.882157642759501,0.0,1,N/A,22.6131344353159
35,35,0.0650356789018125,2.257698372476442,1,1,19.092856161038597
36,36,3.911648163605496,3.599721993123576,1,1,10.127922564073538
37,37,4.075154448377468,8.764243025458843,1,1,21.354895384675874
38,38,4.797575012958696,6.709710872302992,1,1,13.26092512057077
39,39,3.6067484150004736,3.9851560455547053,1,1,9.764178683446033
40,40,4.204089026564405,0.0,1,N/A,14.431919157509249
41,41,2.2878513428791,1.0680701874783949,1,1,10.432733896803267
42,42,5.791541744631813,1.3197418340590483,1,1,23.62981358138301
43,43,5.516854600513666,0.4016767936023713,1,1,15.765572800220893
44,44,4.686463054616623,6.631070429778295,1,1,22.932280508077795
45,45,6.767459254425017,4.661308146893384,1,1,19.771476150366667
46,46,6.645043596207819,8.736410563550152,1,1,17.19163680904759
47,47,5.4623024707069625,4.1031903947857975,1,1,15.238757672720523
48,48,5.41031408601903,0.0,1,N/A,19.883583452119645
49,49,0.030385698112127546,2.8037937573099567,1,1,9.751923013557192
50,50,5.723687633866639,0.633861730829054,1,1,19.12567757187969
51,51,5.321718341715825,9.133075906959768,1,1,14.476411652003629
52,52,8.987286811739931,9.995860761361431,1,1,22.39320866491892
53,53,8.825910535051975,9.219341151443775,1,1,23.87289419621211
54,54,5.457926002129007,5.64645237294069,1,1,11.885098297367414
55,55,5.903640576560801,0.24910389853104786,1,1,17.05312490919242
56,56,2.5912582530976946,3.5656396705220974,1,1,10.779480450354843
57,57,2.4375845650875503,6.62570838930894,1,1,13.060798058385398
58,58,2.8756647575542207,2.17790872008943,1,1,11.72429496750598
59,59,2.135690546763651,8.505195721789766,1,1,21.17072619255962
60,60,0.2717784889303021,0.0,1,N/A,17.279794769559288
61,61,7.25073107840299,0.0,1,N/A,20.40056506544341
62,62,5.959356344756847,2.891297519675864,1,1,15.859013281900193
63,63,5.633579604463162,0.0,1,N/A,11.750312501284291
64,64,0.9383179333577796,9.121879738267257,1,1,19.96468383485062
65,65,2.40166142215813,0.0,1,N/A,15.577347129113873
66,66,5.496450357689463,0.0,1,N/A,23.2895907927153
67,67,9.887633388599527,0.0,1,N/A,18.49224870373921
68,68,9.737742367706028,1.2953455706341244,1,1,15.46938220870846
69,69,9.05981223089612,7.736877813713459,1,1,17.67118975428075
70,70,0.8210510516904967,8.273583091118047,1,1,23.265735346917545
71,71,2.9419501687690994,8.725506408314441,1,1,19.316959562461435
72,72,9.928483497353652,9.07997441985758,1,1,19.367951050049466
73,73,7.489219326310894,3.5070962074870637,1,1,15.709665816881882
74,74,8.654713101196648,0.49783806264375174,1,1,11.935411796403208
75,75,4.46058674031181,0.0,1,N/A,21.441305212147718
76,76,3.5359050222999855,9.89038950224668,1,1,16.661033944611983
77,77,0.18509224743149422,1.7728276569006374,1,1,4.215744682009703
78,78,8.183130483677791,0.0,1,N/A,16.034988366762818
79,79,6.509018090514863,9.942517206454106,1,1,17.05321171316627
80,80,0.26705223437575865,1.930636691430564,1,1,6.283102679240722
81,81,2.3839607295512852,7.846343807811595,1,1,20.473461013610432
82,82,4.07683411197298,6.459250971867437,1,1,20.825617392058412
83,83,5.510369173249417,9.501578164730898,1,1,16.23799260287889
84,84,9.704291579926238,6.726297907352519,1,1,20.822032485346213
85,85,4.544212411636134,7.70137534845631,1,1,15.416595674342354
86,86,4.58659529564351,2.6273253378837733,1,1,22.10950922277442
87,87,5.728650631934516,3.186390968349051,1,1,16.85853585967547
88,88,1.7042780957757842,0.540432734570726,1,1,12.671993364419205
89,89,1.38348421006376,1.0546354870851016,1,1,18.912477894409392
90,90,4.228153911509257,5.2520569599408375,1,1,11.588341673477965
91,91,0.0558400103474288,1.980278029351108,1,1,14.998004781625621
92,92,5.5121310444582505,9.387177421111403,1,1,19.82151848176101
93,93,2.2617548041662285,0.0,1,N/A,14.108813089700824
94,94,9.0285763767327,3.877444304294524,1,1,13.874908911616114
95,95,3.6826817917896957,8.179486620114996,1,1,16.03508676498567
96,96,9.425339859806037,7.211172877012485,1,1,22.997427700545153
97,97,6.554931496239428,8.453721851781527,1,1,15.947341488647465
98,98,9.751931728310367,4.8051590677454605,1,1,16.667234508015632
99,99,9.069900439161271,0.7808324634998709,1,1,10.442322944187845
100,100,9.310859094232386,8.179069896484663,1,1,20.035357781889882
101,101,0.24875874923841135,9.817962011766406,1,1,20.286467810480364
102,102,2.1261460370687226,2.615424234789694,1,1,4.9111870450232304
103,103,7.267229667069123,6.540122789768771,1,1,17.446655745964826
104,104,0.9191655402367671,9.144010567482809,1,1,17.185533685958422
105,105,5.325878371653484,2.866708266903789,1,1,12.405856656975212
106,106,8.812601475504263,2.617729329089762,1,1,17.613481041418627
107,107,7.362211889398164,4.0658644982669205,1,1,20.213858383866675
108,108,9.769084693777417,9.20663930094337,1,1,20.55925546487878
109,109,0.01704601611676626,1.1225701004334387,1,1,21.414221407852136
110,110,3.4019062771217223,9.09208440752976,1,1,14.740463400559664
111,111,9.24091428873644,4.458966082879999,1,1,20.717124390707703
112,112,4.457113377840427,0.0,1,N/A,12.153072010457649
113,113,6.334543227676318,0.0,1,N/A,22.628520442719413
114,114,3.1188350136912346,2.0534470167062304,1,1,8.24694140133195
115,115,4.971018383699509,0.0,1,N/A,23.335500368655758
116,116,3.9882611023813794,8.256041479233794,1,1,12.85985283831525
117,117,1.682124476356326,1.5447528574000458,1,1,4.566739784661326
118,118,6.630167619393049,5.220072032160417,1,1,18.973403001784774
119,119,4.053770117015155,7.999574795101032,1,1,20.278522090860115
120,120,8.964113152629698,0.0,1,N/A,21.565083241193996
121,121,7.300250438106557,0.0,1,N/A,16.829185410121518
122,122,5.901626494237007,0.0,1,N/A,17.556073889490335
123,123,9.13357051245468,2.2272936633850557,1,1,16.672812407657396
124,124,9.122309170814084,0.0,1,N/A,23.28451866257039
125,125,7.112884880218548,0.0,1,N/A,23.523753318662937
126,126,1.4467250947047339,9.46121980220725,1,1,19.512481944440935
127,127,1.5243897236016746,8.837897122303891,1,1,10.878131720441068
128,128,9.166226378245796,4.053262951407856,1,1,22.5631702456303
129,129,0.7367606738222054,5.449413334699606,1,1,23.313951968900824
130,130,1.0765147140349585,0.0,1,N/A,8.156225121220743
131,131,5.092976439113018,1.5792774754546568,1,1,19.668351350921007
132,132,7.986685347951039,7.1125342257554,1,1,20.009775249388888
133,133,7.47770691210709,8.910571109078557,1,1,20.610864066347485
134,134,2.763162545190283,1.57263549715152,1,1,20.65812182567172
135,135,4.375793966292409,7.231616725065509,1,1,20.302400118108316
136,136,1.857606153293423,0.0,1,N/A,9.301560050775716
137,137,4.332555432766256,0.0,1,N/A,16.671038919663744
138,138,4.015501398288155,0.0,1,N/A,18.247964493877912
139,139,7.77326936378214,7.271475094285389,1,1,15.463645004963057
140,140,8.338116780703306,3.4457748687114966,1,1,15.852674864841148
141,141,0.4402601565379183,3.8786543898631356,1,1,19.64922084052737
142,142,8.756508859826088,4.441215538877788,1,1,15.15361891236553
143,143,7.230244510320837,0.0,1,N/A,15.462655963315626
144,144,4.3849007148411365,1.1941046502229347,1,1,23.753547365186286
145,145,3.961652149325033,9.72816513314898,1,1,20.897223953478655
146,146,7.034503658230849,0.0,1,N/A,18.420616114675614
147,147,2.2768158181830866,9.153216640412484,1,1,16.772519017516707
148,148,0.835244648951271,5.12310734167455,1,1,18.31034946082602
149,149,8.401979848417566,0.0,1,N/A,21.795725285232244
150,150,0.1660613065347516,1.311722053010148,1,1,9.64227506413765
151,151,7.494985567083878,6.071128388232583,1,1,15.397357039673157
152,152,3.9068803530841176,0.0,1,N/A,10.918562394756815
153,153,8.74377279005443,2.4555591450339085,1,1,15.967974199966147
154,154,0.7321217522453105,4.781551272584848,1,1,17.626543397520376
155,155,9.598396571747923,4.927805046479726,1,1,16.576154367954686
156,156,3.7424506411937495,5.891638871099724,1,1,23.62745754923311
157,157,8.738745712906766,2.3610931561838866,1,1,16.334022113510876
158,158,2.2772928703150153,9.568098992029327,1,1,12.15375443910521
159,159,6.315096385257808,0.0031328729053548,1,1,13.556086899154627
160,160,3.912511693236386,6.048167146997036,1,1,11.639283284737473
161,161,0.942146753250338,8.273245286997344,1,1,10.612085480246368
162,162,6.450214079941219,1.5450138982056127,1,1,14.299171064140968
163,163,9.245207888274958,7.381606714667654,1,1,17.409492659794722
164,164,3.4845134098287,0.0,1,N/A,21.932656835005133
165,165,6.553948499573757,4.374527416583545,1,1,20.469608369391082
166,166,1.9170187211610257,4.9054647468507815,1,1,11.798874787228737
167,167,0.6835683560148786,4.99319827815988,1,1,12.849447060973151
168,168,9.137232821951937,6.75515360740039,1,1,20.598107012922526
169,169,0.9760801818293829,3.2156282619002283,1,1,21.05681527341965
170,170,9.536294086486715,6.139793796172047,1,1,22.242406852207985
171,171,0.8857225725605267,0.0,1,N/A,8.34191086605705
172,172,2.6514311588399666,2.832381004650333,1,1,16.717387241356583
173,173,9.771730365641117,4.068931435765614,1,1,16.00865057807203
174,174,3.0888745659690144,0.0,1,N/A,20.715658838580044
175,175,3.055729926515698,0.0,1,N/A,17.047753276807306
176,176,5.413071035596662,3.1464372037329182,1,1,22.817466463355608
177,177,9.310801298281621,0.0,1,N/A,18.820730508388472
178,178,9.583378508700319,7.797144018445421,1,1,19.556964882386268
179,179,6.180771681007959,0.0,1,N/A,17.580857285844495
180,180,4.186769093473634,8.44448033753993,1,1,20.704484241956905
181,181,1.2925379519227653,7.1638055112254655,1,1,20.335585602708434
182,182,8.40309368400172,3.451456068405819,1,1,23.525971620906947
183,183,3.803575640228484,8.096629210738463,1,1,17.646629571803352
184,184,2.5142265250253693,2.6342028184963304,1,1,22.519732246294538
185,185,7.482279793100809,4.684898473673885,1,1,13.308727875549998
186,186,4.975733970820253,9.054266795151428,1,1,19.100134496202564
187,187,2.4501265338675005,4.203894161429449,1,1,14.568488911709338
188,188,6.108315033655225,0.0,1,N/A,16.36039862551122
189,189,9.574960177439213,0.0,1,N/A,19.993721907920737
190,190,0.47836703007781645,0.9964373326621756,1,1,13.310923155419092
191,191,9.917018536870998,7.5172856660340095,1,1,19.39655867176442
192,192,2.933605528294092,5.454996901347924,1,1,17.88768406362593
193,193,5.299009530275009,7.7553826543015125,1,1,19.205492919753624
194,194,1.0013956867796725,0.0,1,N/A,21.37283876807389
195,195,1.450232972572647,4.854638866964082,1,1,21.97393242183579
196,196,7.039014393067541,6.622359002270894,1,1,14.452929574262207
197,197,4.022418955788448,4.747442135250967,1,1,22.20403796801314
198,198,5.294972167418997,0.4399974129974904,1,1,10.720655477248435
199,199,3.612883551704339,3.9781740395911025,1,1,19.274509838046285
200,200,8.70054948620723,6.6853117806178535,1,1,23.954177876858232
201,201,5.112273770049588,8.389831188487161,1,1,17.11807603049611
202,202,0.7550365041821594,4.990439995398267,1,1,18.777317244155697
203,203,6.846890826443758,8.020268664777795,1,1,16.495441818234397
204,204,9.039070154694322,9.477292191562194,1,1,19.818498491527798
205,205,2.5753955006679927,2.739813593573186,1,1,10.091070618733541
206,206,1.279655863213962,0.0,1,N/A,21.158311935831637
207,207,6.674412621258345,9.708612048993768,1,1,20.546805270667804
208,208,2.631121724125082,1.023291039675176,1,1,5.380716007326488
209,209,4.081413490911407,5.553609593186187,1,1,11.01096119072875
210,210,1.626775185492676,6.678626022422421,1,1,13.295960417868455
211,211,7.162552258453928,4.06435138234535,1,1,23.96414867334575
212,212,3.41427571831629,9.312779487858798,1,1,19.9629144903763
213,213,2.8887987264893376,9.637146305160247,1,1,15.85068343197362
214,214,8.149976127610723,6.306070477474792,1,1,16.265503629192487
215,215,1.2333426623849475,0.0,1,N/A,7.217535519321922
216,216,8.188823843927285,7.014891380572479,1,1,22.506161677209306
217,217,6.785284665876109,7.696390035005532,1,1,15.086297970443088
218,218,3.1469372782311145,6.463988181916318,1,1,21.71008854958547
219,219,5.476494756779831,0.0,1,N/A,12.579144889628582
220,220,8.430658320248174,2.259498985143531,1,1,15.260965927133094
221,221,7.760217711410342,7.746392777415053,1,1,18.902969067978102
222,222,7.893008962552158,6.488549880340725,1,1,19.317572214670527
223,223,5.778297691260244,2.2405067645732437,1,1,17.29471336490242
224,224,9.570562085417828,1.5020483032028253,1,1,20.15957137412532
225,225,3.532338409029948,4.819302845707611,1,1,23.74876567775262
226,226,3.5889526331884003,9.51427091742426,1,1,17.884544953733425
227,227,7.429156365182169,0.0,1,N/A,22.21338852055417
228,228,5.0627816646600206,1.5835790817187545,1,1,11.66457309518561
229,229,6.0849366120899395,1.3210633589404808,1,1,13.372124064471558
230,230,3.428104442820085,4.715983621230696,1,1,19.767459761546135
231,231,2.8171380509227815,6.38758072625028,1,1,12.85734186872506
232,232,2.7870102943835997,3.226757475755319,1,1,10.23191414125484
233,233,2.4387104755247413,0.5258985826643714,1,1,3.742388130347957
234,234,9.786238486678204,8.209539990828386,1,1,22.546571336909544
235,235,3.163459010338283,0.0,1,N/A,12.341670095631821
236,236,5.9964439022326745,7.636625095032804,1,1,14.21240832769744
237,237,5.234851392242242,7.412437685582631,1,1,18.272319868126946
238,238,8.773664286868964,7.78006037029213,1,1,18.23413869056983
239,239,7.655192180871911,6.886059072602238,1,1,20.991434934105126
240,240,9.390729660843894,5.48958250243762,1,1,18.225571323437315
241,241,5.336752434018061,7.0922967508320625,1,1,20.64180671642192
242,242,3.4730944531701393,2.314582223238326,1,1,17.233415180727253
243,243,6.502577050009702,7.36012492096139,1,1,16.42186358906988
244,244,7.13740817556825,9.903334954397526,1,1,18.943661888572517
245,245,6.521982151131519,1.5700260847147685,1,1,20.385139865081563
246,246,5.772359027919398,9.475437089702405,1,1,21.254075426618957
247,247,1.2537029052083637,0.1615216731819602,1,1,7.931857938975412
248,248,4.906332112660012,5.135098222591483,1,1,22.61282964335953
249,249,3.3947794249362917,0.0,1,N/A,18.292789610675687
250,250,0.21995075926507512,4.292190705631772,1,1,22.135609537652527
251,251,1.5517139382585388,6.44019830164523,1,1,19.313431777417982
252,252,8.032401546452103,9.540349337075801,1,1,23.201211381822333
253,253,4.107880280738854,0.0,1,N/A,12.383114354824666
254,254,3.562329796427506,0.0,1,N/A,6.365080383941493
255,255,0.20421034285109885,0.0,1,N/A,8.814378597158647
256,256,6.615810235400939,9.844397223919485,1,1,23.89110622426747
257,257,5.545691632728616,5.356778157261733,1,1,22.23802558058275
258,258,0.8333302206727489,4.312899587636256,1,1,12.424562243865012
259,259,5.75069374598891,2.045829675929763,1,1,10.456521697050754
260,260,3.4858109869737266,0.6097356573167745,1,1,22.406966767085294
261,261,0.47448442793503687,4.699031175387121,1,1,11.802977028756354
262,262,1.9517349363392866,2.300953045306496,1,1,13.244883604454865
263,263,7.702163436220165,0.6244941840819995,1,1,21.22187819616583
264,264,9.322282093392957,3.0307244463838523,1,1,21.058753717068242
265,265,0.025042593764752485,0.0,1,N/A,13.57661708963687
266,266,4.6882161493106675,0.47096084433798313,1,1,13.733205760570144
267,267,3.0491693976869105,5.465618127703699,1,1,23.916271434557622
268,268,0.2548991351648,3.2932006561200677,1,1,22.794716181964283
269,269,2.6448255467476334,8.77240594604639,1,1,16.592992360054048
270,270,9.907986038191815,0.627605303705665,1,1,19.1580793934652
271,271,8.376190010408186,9.640148460219407,1,1,22.707353710632695
272,272,2.2685091541245272,0.0,1,N/A,18.631307522216666
273,273,3.058588025117496,0.5762868504224128,1,1,13.931631109638808
274,274,6.631967835692393,3.3117512893953363,1,1,11.838374430186615
275,275,1.4980358068058997,1.5910169471102953,1,1,17.435386202312547
276,276,8.84385842748815,0.0,1,N/A,15.287418675305952
277,277,6.136569145544907,0.0,1,N/A,14.481980311847057
278,278,4.754300118099021,5.163171146698582,1,1,10.263294484723353
279,279,4.519457494778289,5.152726234735137,1,1,11.713570069730565
280,280,1.8524071648898677,2.9603396386900527,1,1,9.693439870065848
281,281,9.16480714604369,5.667666037538163,1,1,15.156002019397118
282,282,3.3743563882960514,9.140932445732977,1,1,22.95433232326583
283,283,9.89155357044274,7.203261337867173,1,1,17.597902162100638
284,284,9.719279160614466,0.0,1,N/A,22.91339637276935
285,285,5.2717645167086635,0.0,1,N/A,20.919234562381234
286,286,3.6920042255728838,9.594501588257108,1,1,22.34550929407055
287,287,7.778293431237554,1.4626170201314703,1,1,20.128699028635296
288,288,2.2525947604365726,2.5553519955301116,1,1,6.59697657775615
289,289,1.9537058399325813,9.671031687145486,1,1,16.81718535230869
290,290,9.293008625681308,3.1686055861541798,1,1,18.231121542964345
291,291,0.23544318287603505,9.20420225732583,1,1,21.569694524233817
292,292,4.581847441072183,5.7343917709179095,1,1,12.415749194376094
293,293,2.5201636638207514,0.0,1,N/A,11.574854014504593
294,294,4.8226679427646655,1.2394273672137113,1,1,10.375042908094766
295,295,5.221648002953453,8.414687400711728,1,1,14.47748860794302
296,296,3.0901031959349554,0.0,1,N/A,11.094975364284057
297,297,7.822960887476676,3.83080603954564,1,1,17.29770996850618
298,298,9.656126063799025,2.8959666350593585,1,1,21.457337341418672
299,299,1.0604516783511242,2.052560937219543,1,1,11.010390188611694
300,300,0.6203507363685501,8.595108693288404,1,1,15.402636290499078
301,301,5.459434297309546,4.028830624494153,1,1,13.722024112890406
302,302,0.8423648150719099,6.290382820482949,1,1,23.313875531763614
303,303,4.887177201410703,4.314857971308666,1,1,22.786185648699785
304,304,0.8883872691909,0.0,1,N/A,15.10998946801104
305,305,0.7000158267078727,2.8408255794150348,1,1,18.459905898578405
306,306,0.6125764962979297,5.033506738377951,1,1,10.322137854656336
307,307,7.486706835851319,0.19779639789420878,1,1,23.95007258543704
308,308,3.200213908573474,6.8472784561755615,1,1,19.24034641234512
309,309,3.37543206489058,0.5881327595090824,1,1,14.15965308887548
310,310,6.290651120754886,0.8368858312281524,1,1,10.109899684506535
