,Job ID,Stage-1 Processing Time,Stage-2 Processing Time,Stage-1 Machines,Stage-2 Machines,Due Time
1,1,8.482695540272744,3.236143799790355,1,1,15.065309128202053
2,2,1.2793116682470707,3.738443754616317,1,1,8.373442167076332
3,3,2.2113190874037625,0.0,1,N/A,12.642384708470964
4,4,2.436561017817115,4.720249348839495,1,1,14.220166949204518
5,5,1.3320150592185487,9.211013115273644,1,1,13.53199176595289
6,6,9.017169505210036,1.0870449824293171,1,1,13.776389409530292
7,7,2.4414097831190142,8.522905090335527,1,1,20.015668988811484
8,8,9.350136856446374,5.953435876616357,1,1,21.964330401018113
9,9,0.5353616153615903,6.869271228820727,1,1,20.005362936998704
10,10,7.5736307251514265,9.148894253968368,1,1,17.41438883337287
11,11,7.993197972477276,4.657635531971531,1,1,17.935232642560198
12,12,6.029745063723052,0.0,1,N/A,21.395824333474
13,13,7.563534249266326,6.934067568099329,1,1,22.82438682271764
14,14,0.4901826962346112,7.4304886075857866,1,1,17.06300841107708
15,15,2.881616992647187,7.882626339127654,1,1,16.690210459385217
16,16,5.1218167746206325,7.460627722376843,1,1,21.667903495001532
17,17,7.6017845015313,0.0,1,N/A,21.45150612045652
18,18,0.8736892267801566,0.0,1,N/A,14.51581181236456
19,19,3.941670731300638,2.087442015816557,1,1,9.646707472925929
20,20,6.813861709155798,6.766994230970694,1,1,23.069908829725478
21,21,2.1114561568105152,0.0,1,N/A,13.882795134565214
22,22,5.412448365428588,0.0,1,N/A,16.09005842875186
23,23,0.8527933160141621,5.655900679920194,1,1,11.351935974372648
24,24,6.398321592187131,8.88001285990637,1,1,15.9226734223604
25,25,3.393332144717356,6.9763422338758545,1,1,18.214184165699873
26,26,6.377157466796236,2.360027158112316,1,1,18.430153721411756
27,27,8.044124381919422,5.280403385806613,1,1,20.185346831956963
28,28,0.1475216492379583,6.370137291991325,1,1,9.585034436214869
29,29,0.7897359893077383,1.5104131287425981,1,1,11.293312654919363
30,30,8.27869219385418,0.0,1,N/A,21.641222811230396
31,31,3.4973506134230616,0.0,1,N/A,14.56040654655829
32,32,9.177995033428942,0.6489455804899014,1,1,12.070339275644294
33,33,1.731400768553264,7.785380598414152,1,1,13.520621458440473
34,34,4.536416358013704,7.130181324707556,1,1,22.238266526925106
35,35,2.0786795295139293,7.691067054067149,1,1,22.754385802561593
36,36,7.009241592501116,2.6624292016699624,1,1,15.222053286928297
37,37,7.694980724534198,7.527095442976309,1,1,16.87857773089985
38,38,6.542058285818956,5.441432698428312,1,1,23.84279953502859
39,39,9.279824692234408,0.0,1,N/A,15.120469770498882
40,40,7.1508474257605545,9.179165227804146,1,1,19.01616154076823
41,41,5.768828144819911,5.415175842877609,1,1,16.34031203861158
42,42,9.3821762548232,2.0839989217015873,1,1,16.357577032398964
43,43,9.300191243188372,0.0,1,N/A,16.94228438696477
44,44,0.6211678917456076,5.654585843667753,1,1,16.865768506871248
45,45,4.8796046698475335,8.829535868755757,1,1,18.008724878735254
46,46,5.453132063264282,4.743691438144739,1,1,19.406427009638705
47,47,6.976395547784122,1.0666016969312564,1,1,10.608175091126139
48,48,0.529857216864823,1.0122977494994179,1,1,11.62880964743382
49,49,1.6529667932309955,4.411450982933665,1,1,17.901770938466523
50,50,1.759578757618927,0.0,1,N/A,12.026664199659159
51,51,4.585430826517686,3.566133642415339,1,1,22.51094166368813
52,52,3.571252627368188,5.109665652594541,1,1,22.71507844243108
53,53,4.744140447508807,5.001761401349683,1,1,21.200718689734636
54,54,5.139219536404034,2.925408668783893,1,1,19.814704797645053
55,55,4.722825611318161,0.20189637555452666,1,1,21.312419903484876
56,56,7.797508610589686,4.532844228942539,1,1,14.09473998857669
57,57,3.577485170963465,6.3112532135857595,1,1,11.066941399772608
58,58,2.2097503730143133,0.0,1,N/A,14.551576476191697
59,59,7.599385302091038,8.126107236989588,1,1,21.560332365226703
60,60,1.3553778459765087,9.770880293084542,1,1,18.46139458874417
61,61,6.7466615980672575,4.817249297902521,1,1,14.885619748435673
62,62,2.8257767055977823,4.666323494062864,1,1,9.007165395752915
63,63,7.469187934484252,1.5717418829194263,1,1,23.734502622546554
64,64,7.058964310521248,8.3595627335108,1,1,20.783000662091577
65,65,6.551530353345351,4.955829981182674,1,1,13.15139282080354
66,66,6.783457208173932,7.194773782101697,1,1,17.037381168758827
67,67,6.990588744279097,7.149659366471763,1,1,17.504465027245065
68,68,6.589359096131861,9.897078254687473,1,1,22.787501775245282
69,69,3.4250366258226106,5.716315261786758,1,1,9.798483405736015
70,70,3.3504796224957714,7.603165124775386,1,1,20.064612881758826
71,71,3.9091972789719733,5.194037253638884,1,1,15.089689162375489
72,72,5.451894355519846,0.19456457592860965,1,1,7.243007533142164
73,73,4.849204083507518,9.84162696236133,1,1,20.162469570340107
74,74,0.3357954222901183,1.1295159921216325,1,1,20.480889411745704
75,75,1.3848821896167662,4.863342659070932,1,1,20.909783060089477
76,76,5.478876761615647,7.743276904755287,1,1,22.95178991233086
77,77,6.657206470994915,3.868170111090855,1,1,11.965488782172814
78,78,9.482731575617475,8.611767058501373,1,1,22.218586137337173
79,79,1.5951170316819019,0.0,1,N/A,11.056244960402482
80,80,7.678022176889457,7.1912687370482935,1,1,19.86600282417177
81,81,2.9416114674025318,8.44147122038569,1,1,17.08885869897981
82,82,5.525519935087982,4.715225411959113,1,1,16.240002679274635
83,83,2.418245204436241,1.8739876422071422,1,1,17.402753372927794
84,84,6.930948563802543,5.467443260611059,1,1,23.420050991628337
85,85,6.701001119977775,4.496107026868587,1,1,11.69950228863733
86,86,3.864947635940774,6.20885362866074,1,1,11.15677285629691
87,87,8.771111447222783,7.136067058788706,1,1,19.95633057147673
88,88,1.9634663343382563,7.949060418051106,1,1,23.472017632968093
89,89,4.745383668044668,5.2858932473039575,1,1,10.672101157703587
90,90,4.109146624276246,4.027687400151313,1,1,20.91311915437445
91,91,5.928161537112323,8.930998745659235,1,1,21.738106278846615
92,92,1.8153466502816218,9.481841626740415,1,1,14.800986039644961
93,93,4.237639072741093,0.5279478837832707,1,1,8.802459492081606
94,94,1.5836012053273418,7.240891282483915,1,1,10.061761335708086
95,95,4.744489046270334,0.7672236927916021,1,1,13.345795708543458
96,96,2.1038063792022577,0.4338203756432646,1,1,5.673195724096291
97,97,6.931239804958949,8.775487756772657,1,1,22.106798961077253
98,98,9.471868246764652,0.4256779929566712,1,1,17.539808359600748
99,99,3.0104343430372706,0.7607204849672777,1,1,11.375166954077184
100,100,2.4603224077227512,6.8275115637846895,1,1,17.74231781033819
101,101,9.181631211436924,7.79457287775057,1,1,19.84462760331875
102,102,1.8685626318323512,0.0,1,N/A,17.203386785333876
103,103,6.078011175912991,0.0,1,N/A,19.21252592110511
104,104,2.7841874665646626,0.0,1,N/A,4.463473643320543
105,105,0.4282116349786069,5.546448906405593,1,1,21.63820703365063
106,106,1.783116612839184,0.0,1,N/A,11.465598058857974
107,107,8.522939899664792,6.226305269672238,1,1,17.352837531296633
108,108,3.916501384312485,3.038962383812712,1,1,13.669129561526812
109,109,8.936096024481241,9.398068321076428,1,1,23.552615370568443
110,110,9.056569469908279,0.0,1,N/A,22.555493726136007
111,111,1.182585902621004,0.8381791130727678,1,1,3.8524040419003076
112,112,6.31899757933194,6.719228614889364,1,1,22.022630535740504
113,113,3.8411112683702067,2.975707586194891,1,1,8.17567420756549
114,114,0.47981363994496484,5.0032792185744634,1,1,19.043538747994837
115,115,1.8948543857264177,3.664961813421618,1,1,8.598098824348149
116,116,9.476232171237895,9.744935329772778,1,1,21.326844385919426
117,117,0.07113986994623733,0.0,1,N/A,11.55123182910672
118,118,8.480707312387043,0.0,1,N/A,16.832375210938324
119,119,0.9240468579316719,7.790695495660426,1,1,16.269784647244734
120,120,3.2688181852937284,6.910676221774291,1,1,10.441658674591208
121,121,3.1486949482435787,8.936630409842465,1,1,23.010834047041666
122,122,0.0897103059538018,0.06963962411435487,1,1,0.16985908256154403
123,123,5.257929401275881,8.14748027665049,1,1,15.8624169830576
124,124,3.5018444977683116,8.068731989595525,1,1,12.385364981975744
125,125,8.374464303839487,6.861264337902649,1,1,23.758108051043507
126,126,9.996680565776046,9.814203109304788,1,1,20.35232070212317
127,127,8.532332268476999,8.235138926834795,1,1,22.368966116701284
128,128,1.981470969406255,0.0,1,N/A,14.278407294431936
129,129,3.994961037095306,2.849621183015155,1,1,13.079327231763951
130,130,8.81480673701106,6.484012445790572,1,1,21.491935023075666
131,131,5.228192458595214,0.0,1,N/A,22.553541851513167
132,132,9.091887074991341,0.5255564557638737,1,1,17.905011525467366
133,133,0.8124496180535368,5.425722317414032,1,1,7.850616614856968
134,134,4.097378970054008,3.1715259166949163,1,1,8.999269784589348
135,135,0.7627810054751827,5.252120532599223,1,1,22.196571147227726
136,136,6.662994979478699,7.821750712736359,1,1,16.311855440468673
137,137,4.997519715397555,8.45908432995246,1,1,14.67091032073581
138,138,7.676250532169025,7.5909712343434315,1,1,20.686838060328135
139,139,4.487914896425188,2.540197488837892,1,1,16.755901677090044
140,140,1.234542801877665,6.750451387398906,1,1,18.229107924418223
141,141,5.678623812749213,8.94055345531274,1,1,22.560668315321713
142,142,5.905808769756904,8.19363821662517,1,1,21.761399639506735
143,143,1.4360826865932208,9.681876074411502,1,1,12.824180637765656
144,144,6.025367552015163,7.693270178329909,1,1,15.147515805613292
145,145,3.9805575288048334,0.0,1,N/A,17.492053066731035
146,146,5.696233482183736,0.0,1,N/A,15.667276652128034
147,147,9.363232175023407,8.598136480813,1,1,21.45132879450068
148,148,0.9986534072281106,0.7968914195024579,1,1,15.15428804621143
149,149,8.449374040916522,1.721047953221021,1,1,12.127326198540256
150,150,6.601913838522125,8.356873269426044,1,1,16.582798862814755
151,151,3.6336280550223488,0.0,1,N/A,17.441871573286367
152,152,1.6546891158505084,0.42670562061820294,1,1,22.988845812827307
153,153,5.222837498515657,2.7196728429099237,1,1,21.331230825859162
154,154,1.1580706621704473,2.4223558903101203,1,1,6.0142752627569
155,155,5.878834403251752,7.563341902623595,1,1,16.351914490917085
156,156,9.726171016633604,9.31257939776952,1,1,20.777000506255074
157,157,3.614611819419944,1.5817073720173547,1,1,8.564043215418119
158,158,2.5502187041563875,0.0,1,N/A,18.577142902450806
159,159,9.967937848263634,6.6840371015442726,1,1,23.48060973653035
160,160,0.8533889145677653,9.334024003557863,1,1,19.134384178582792
161,161,5.182535360579106,9.53909150622339,1,1,17.07241748573402
162,162,9.981595470132419,6.618256896249104,1,1,23.415610672958326
163,163,2.9006644068775946,0.0,1,N/A,18.574823940959405
164,164,1.0411603944294445,7.279044638862615,1,1,17.06921512397082
165,165,7.613515765981887,1.1268897030141645,1,1,23.19774679212593
166,166,3.3945150375791098,0.7549273656270272,1,1,21.144878595104622
167,167,9.25523728101426,3.6936184403579264,1,1,14.598784686896655
168,168,1.706910116124034,4.746919393769175,1,1,13.406332734954363
169,169,8.776659880684075,9.555888616101724,1,1,23.718301440713198
170,170,0.7717291039767316,6.744951037212569,1,1,18.280649157347202
171,171,2.8751665361241274,0.5306557539847978,1,1,6.144928195651155
172,172,2.52920418085968,3.4423865439666965,1,1,21.912868251245953
173,173,7.708683827550507,2.6802933362825265,1,1,20.546896412919345
174,174,5.168248328350621,7.560128058612529,1,1,19.38307875199871
175,175,6.679229200652063,7.748256316968824,1,1,17.479802366723295
176,176,7.1425599472765136,7.164438323568137,1,1,22.482137985442247
177,177,8.014409453055245,1.7220604533484518,1,1,19.75915996565275
178,178,0.956744449591318,6.755158671488188,1,1,10.27010613412818
179,179,0.4757565594321178,8.82460464058844,1,1,10.959776140087106
180,180,0.9335317002493504,0.0,1,N/A,12.782812510229082
181,181,8.10053376533158,0.5076789149260319,1,1,17.3108852320699
182,182,4.857803247189869,4.456144611628924,1,1,23.247724084710583
183,183,9.131406773587345,0.0,1,N/A,20.975113275698618
184,184,2.635546646077158,5.994997528171382,1,1,21.916305657072378
185,185,8.243732914655716,0.0,1,N/A,20.748398026526075
186,186,3.2676904687281425,3.4057684053590354,1,1,23.735790113138922
187,187,2.936879500829359,8.458538839837557,1,1,16.76399659133215
188,188,1.451799573172815,6.68604376835542,1,1,11.149179808608388
189,189,7.641000799628003,6.653325957844443,1,1,23.96943280695067
190,190,0.30082067960821357,0.0,1,N/A,16.8065144010472
191,191,0.4473213671146936,4.978542084786117,1,1,8.037555335296725
192,192,4.270096658408395,0.9965280906121698,1,1,6.369188880444128
193,193,1.394076589680775,0.6748546809470468,1,1,15.576549919318955
194,194,9.374494170525466,2.5116883746760346,1,1,18.129862003773358
195,195,3.6354802046209733,8.642491141965847,1,1,20.020572840905288
196,196,8.193582139313992,2.0106889698588604,1,1,15.609438790920082
197,197,5.9205258260044715,4.877160083371948,1,1,12.927550567648215
198,198,5.330127825677048,6.061322590209666,1,1,20.560635444418303
199,199,9.64585059907232,9.51896516948468,1,1,23.115486286995676
200,200,2.0315300588560445,1.560835145189431,1,1,19.9079200474407
201,201,1.1431973929037176,0.0,1,N/A,12.667870875303029
202,202,8.545486526381163,9.300788817990567,1,1,20.69588960352618
203,203,1.9453488425236376,1.2747787598694638,1,1,16.841423049454
204,204,2.3519653828643996,0.3486304894063941,1,1,17.150309443955994
205,205,2.0275334365561504,8.895248644099706,1,1,14.673454170209096
206,206,6.207409570701458,9.408823940743053,1,1,23.79564554102017
207,207,5.717453883841628,9.783752994216554,1,1,17.58567610641516
208,208,0.8043084129805445,7.92804488881731,1,1,21.844470947447363
209,209,0.14439432151195808,0.0,1,N/A,22.718675859470245
210,210,4.074936143525363,8.67980128995703,1,1,23.62039451950268
211,211,4.046937965556717,0.6654670056318357,1,1,4.940306029193547
212,212,3.800169611939066,3.61195720030003,1,1,9.609900805645353
213,213,3.087983009412202,5.620210267278713,1,1,15.409027048961256
214,214,6.503327338329306,9.465116037772175,1,1,21.809450151269886
215,215,1.677702768371685,9.181164540182946,1,1,15.150226294416171
216,216,0.4713296209543394,6.920579940346911,1,1,21.409740382572153
217,217,9.044313994463897,8.440268241513563,1,1,17.6227618453178
218,218,3.778886007850236,0.28826169334122964,1,1,17.90256870351935
219,219,2.0098058614899914,2.5930642125213943,1,1,10.239485806785169
220,220,3.815690750614442,6.226507413076065,1,1,14.040140590075506
221,221,3.0255389713741243,0.045419307835529166,1,1,21.4386287457191
222,222,3.834956149784814,3.7216786212534467,1,1,16.701883384525768
223,223,1.5436895290170916,6.707206745511312,1,1,23.04915145533065
224,224,4.892535520809381,0.0,1,N/A,21.71261309544136
225,225,6.826122213747455,5.80119248736287,1,1,16.870688128233567
226,226,5.046349992620711,0.9220370179981441,1,1,12.939291549577746
227,227,4.78527590820391,6.546824537832542,1,1,17.218927946134844
228,228,1.9322128998736443,6.55104277399344,1,1,21.678155382013884
229,229,9.199989006379962,8.468582876095791,1,1,23.958479706426296
230,230,4.728476166173298,0.0,1,N/A,16.35027758828966
231,231,3.3894601822740746,8.938698182031828,1,1,22.320862591929107
232,232,6.216088813944985,0.0,1,N/A,13.110512742942019
233,233,6.830716805848091,6.084368635597733,1,1,16.742553895700528
234,234,7.3127698594947335,9.500152029589872,1,1,20.756848485913586
235,235,3.4756074086019817,7.842701384677175,1,1,16.105186149772194
236,236,5.334163174031891,4.336118648618509,1,1,10.29518952483723
237,237,3.553094488735894,2.904516059650173,1,1,13.650760898094845
238,238,2.9277421811986324,4.248620045230073,1,1,20.520618105790472
239,239,3.7074681415469515,0.0,1,N/A,17.51607142519838
240,240,2.7602807473001265,9.808777245592056,1,1,21.50559982090831
241,241,1.3540970570147626,5.93407028718913,1,1,16.935355221407157
242,242,9.687857758770281,9.312708742789859,1,1,19.447574552099177
243,243,8.882936802693006,6.648436025388374,1,1,22.18600741789973
244,244,1.9458592783625517,0.40415183272613175,1,1,8.269550985197974
245,245,1.436165020466148,1.5910804223831776,1,1,5.540569625991976
246,246,3.683353848014658,0.0,1,N/A,15.444714607221552
247,247,0.7561617250914021,3.1703895826502606,1,1,18.660049458881346
248,248,0.549238010848595,7.289351324943728,1,1,18.18466607962944
249,249,9.866525800803885,1.3649427810737902,1,1,14.403919810280273
250,250,4.1910474599070335,2.1533447504336154,1,1,14.674187640717507
251,251,8.69297664576598,0.0,1,N/A,20.82096795588015
252,252,8.494496301728509,9.96528890806108,1,1,19.936647479956008
253,253,7.390672364798169,8.089486297611034,1,1,21.036544847475025
254,254,2.001810654517312,0.0,1,N/A,13.010528166025086
255,255,8.58898526850166,0.0,1,N/A,22.460847296455263
256,256,2.66230668337079,8.929150169787007,1,1,20.292354243341556
257,257,7.35630892828928,4.577410863525157,1,1,23.54940360557055
258,258,3.9841941986443166,3.979859519424045,1,1,18.16219467814104
259,259,6.4938426817833985,0.0,1,N/A,20.257127689372
260,260,7.174385832148125,9.879464784540225,1,1,22.741931572285043
261,261,5.88268628948574,6.668416443987011,1,1,23.612326962923543
262,262,1.5690476742190318,0.0,1,N/A,10.415734858055266
263,263,5.776993747033407,7.837144537576819,1,1,14.003746973660158
264,264,8.106765015898496,4.289840927713126,1,1,18.629276795230346
265,265,2.409957135101126,5.344928035747961,1,1,9.551027726605055
266,266,0.7771903754634379,0.0,1,N/A,5.4282278848662795
267,267,3.2623696378429012,7.685163512917321,1,1,20.068942320621936
268,268,9.493586496102278,4.5436971607584455,1,1,18.966242697217186
269,269,8.253094522376488,1.4561864953501469,1,1,23.169837941188277
270,270,8.617348294228702,0.8964688285259825,1,1,17.900623751162858
271,271,8.24155024336497,6.100497659637311,1,1,16.11914976443868
272,272,4.411279972958287,0.0,1,N/A,18.828447539836397
273,273,3.584525473819377,5.432187800519792,1,1,9.78282832835448
274,274,8.94464299720917,0.0,1,N/A,18.988895830977707
275,275,6.609088977587115,9.50962991696034,1,1,21.703016048210056
276,276,2.456996672663335,0.0,1,N/A,10.0851819157517
277,277,4.633120441785951,9.9976393387592,1,1,18.637986307112946
278,278,6.768157770308786,6.967664846223841,1,1,17.498561447085255
279,279,1.763167068790189,3.734915853261971,1,1,6.048347477100136
280,280,8.82595504746685,8.645594916848736,1,1,23.55782281899812
281,281,6.375848642988121,0.04354578712920665,1,1,12.093108626307494
282,282,9.269359396249648,7.666347029207849,1,1,18.13030497200534
283,283,1.6967746607961598,7.050853676411203,1,1,12.352570948223686
284,284,4.523919897192721,0.0,1,N/A,18.253082305675633
285,285,5.736348512473949,0.0,1,N/A,11.203478340987306
286,286,6.324560357282475,8.600263734652852,1,1,15.082007375115444
287,287,9.322924866728776,4.559614904087908,1,1,21.66197361843216
288,288,5.48240457754253,4.504713313573241,1,1,21.254360010816647
289,289,5.541205400508415,0.0,1,N/A,17.897661190548895
290,290,8.48808853871985,0.30049832281391464,1,1,15.903749841628766
291,291,8.820157438444895,3.415758263367965,1,1,14.55740482386382
292,292,6.343951213849329,3.1352456469011214,1,1,23.433231437664535
293,293,1.8722587160669735,6.129142860453733,1,1,15.595826956642016
294,294,0.16775664339245155,5.663697575511714,1,1,5.96904991611631
295,295,5.317259540449371,5.146210418775938,1,1,20.736311765456087
296,296,6.837095111306057,8.79587170861684,1,1,16.85130357747397
297,297,4.993373893541811,8.88356059865657,1,1,19.7151276399691
298,298,7.755730824950367,4.7452463411625,1,1,14.29557478149108
299,299,7.863766025375627,0.0,1,N/A,20.918612672492472
300,300,3.70916897920315,6.047286044553469,1,1,16.926543377416337
301,301,1.740728096321389,0.0,1,N/A,22.04109207203176
302,302,8.355143954102282,8.86804841097718,1,1,18.14157761351993
303,303,9.622856670400278,1.4956720170748283,1,1,17.98924917957519
304,304,3.7440071719581427,0.0,1,N/A,23.773588527447778
305,305,6.018043831542914,7.998049305528033,1,1,14.657980323849207
306,306,5.532573513721047,2.074346199572241,1,1,9.726375279347923
307,307,1.1661970281696488,3.4148837827698575,1,1,13.783091135489004
308,308,6.151628663403121,1.0181354501568818,1,1,13.396127941774433
309,309,3.6738288079574497,0.0,1,N/A,17.794764527405647
