,Job ID,Stage-1 Processing Time,Stage-2 Processing Time,Stage-1 Machines,Stage-2 Machines,Due Time
1,1,6.637097262289144,4.7442864163903415,1,1,16.926015897889485
2,2,4.366983147223278,0.0,1,N/A,11.78281895077428
3,3,3.21023749043389,0.0,1,N/A,18.485760396715385
4,4,5.546361027181792,3.6169310708786897,1,1,14.655279584900173
5,5,8.298589487439173,6.067881303067324,1,1,15.31612327931668
6,6,8.904994060584967,2.8543579104013874,1,1,22.294748722169125
7,7,2.5293370145564986,9.368205032967044,1,1,12.905913445565254
8,8,7.582931270794191,0.0,1,N/A,16.876148846344456
9,9,2.181101002524758,4.618886855697912,1,1,22.979626123028954
10,10,1.2657332075373584,7.055679091076527,1,1,22.194273392477683
11,11,6.896542310502028,6.176259864698518,1,1,22.339859267203096
12,12,0.6003852503818097,0.899592293682201,1,1,22.675184151492843
13,13,1.4829414814498654,0.0,1,N/A,13.490546667517352
14,14,1.7968082871442603,4.671857773474891,1,1,21.87130189902532
15,15,1.0694481980771808,0.9887969298880417,1,1,9.31048176613021
16,16,9.185886843644344,7.486646591599332,1,1,17.513862977675863
17,17,4.66619613222824,7.151362303484462,1,1,20.577294605292252
18,18,6.2899395924368,5.709340014242646,1,1,18.995637006943305
19,19,5.954809437154144,0.0,1,N/A,16.158005372244993
20,20,8.918474231881923,4.167867793181781,1,1,18.562963099254674
21,21,8.053711063752933,3.951259191569443,1,1,13.613073775712326
22,22,9.849821563464037,2.024180164842375,1,1,13.118473590458716
23,23,2.745462368791073,0.0,1,N/A,19.005197494763017
24,24,7.148580634301929,1.742440764253026,1,1,20.172752867923496
25,25,7.766894617966601,4.799924890853381,1,1,22.269782272646154
26,26,5.382593553011411,5.939431305199832,1,1,13.128711256301898
27,27,7.7661430943495455,4.155163008998074,1,1,21.490962463032268
28,28,8.891294705504103,5.1834106268526075,1,1,14.184849757879535
29,29,2.2215943117018853,2.9091170970851943,1,1,6.96045179430521
30,30,5.077740298913138,0.0,1,N/A,16.626751506897367
31,31,9.326927892217633,8.517603525589312,1,1,22.417623905129158
32,32,5.081119497738104,0.0,1,N/A,17.876803762444577
33,33,8.330094630555537,3.1000847439407675,1,1,14.221160600756193
34,34,9.606187544944824,1.295269521903628,1,1,15.068127582779589
35,35,8.457290113848833,8.999506343419176,1,1,17.74116465761382
36,36,2.9466674288045436,4.29815516128358,1,1,8.700781211943939
37,37,5.177052859034397,9.224147617263297,1,1,23.932550245381282
38,38,0.09885869828128113,8.13114108439359,1,1,17.968537950242066
39,39,7.527602904093954,8.57378339398858,1,1,21.668846089354425
40,40,5.565580171930259,4.837561463561549,1,1,15.111417890939604
41,41,6.3430960627384625,6.581439153705268,1,1,13.793155699201918
42,42,6.8445822518390775,1.1584878935503995,1,1,22.604432604376104
43,43,7.675516996186498,3.029615065025353,1,1,16.37775977915019
44,44,1.51539861688325,3.9292352233760397,1,1,16.899855193938926
45,45,8.071189651064294,0.5032773042859029,1,1,15.969342958024292
46,46,1.1826792287267485,4.001636144370507,1,1,15.183488380039131
47,47,9.320292153405516,0.4816510590653156,1,1,13.86953779222053
48,48,7.534304518856201,2.500449129142621,1,1,23.587039500073644
49,49,2.4257520455411994,0.0,1,N/A,23.8076740099292
50,50,3.0438105941127813,8.336759301059443,1,1,21.305574568816944
51,51,5.157123043079751,0.3990783569753298,1,1,12.72724263170447
52,52,6.205559011902753,3.692506924340293,1,1,18.427128039949718
53,53,4.13243063051551,8.059234415838477,1,1,23.40078896017397
54,54,6.848597297801078,0.0,1,N/A,19.189083913995972
55,55,8.843638369725717,2.813956743107574,1,1,18.828095912087814
56,56,5.338869357910126,0.0,1,N/A,20.369885605797762
57,57,3.032041952910914,0.0,1,N/A,9.109357008540435
58,58,1.6705234251996581,3.0399441197047397,1,1,4.954026022889152
59,59,5.425955014962577,9.641966440362461,1,1,19.834039416063856
60,60,5.013133806894108,2.3699243772727616,1,1,21.031515961200643
61,61,7.740092503585801,9.959797716843322,1,1,23.138545390146064
62,62,6.395252566496554,2.879296658438565,1,1,15.640824484855589
63,63,2.287786506723317,0.0,1,N/A,16.882918473608015
64,64,0.7583491090375416,7.156336555742494,1,1,14.505444433347858
65,65,6.679970503444367,1.9317896124279332,1,1,9.925647540600751
66,66,0.013455939323415711,0.0949189600980016,1,1,8.932825555270538
67,67,1.2248310894735048,1.5446886702710994,1,1,6.915686713730207
68,68,9.297641534552366,1.449603184169691,1,1,21.242486678050483
69,69,7.789275363664691,2.723899377622905,1,1,18.56902100794803
70,70,3.6485279910633373,9.158938986876013,1,1,17.08080150391479
71,71,7.066225934965031,3.998544154598904,1,1,16.589324362516432
72,72,6.549226506062257,0.0,1,N/A,17.078355290352242
73,73,0.37365836344325665,2.796132881449137,1,1,21.45370436446572
74,74,0.00610204660882907,0.0,1,N/A,9.51626295648647
75,75,4.2343267331611205,6.429926599136472,1,1,11.874191493610196
76,76,6.7174781211123635,7.422853015175345,1,1,16.752372165938905
77,77,2.6774446175293356,0.0,1,N/A,19.8906258303191
78,78,7.495606290166132,0.0,1,N/A,18.923541110986577
79,79,8.259011051456477,0.0,1,N/A,21.045344809281048
80,80,5.5588743782335515,0.5958859520167237,1,1,6.92719678197696
81,81,2.409844455300508,6.250476148259479,1,1,14.91718200228803
82,82,3.66969257107042,2.883273666162239,1,1,22.773741478795436
83,83,4.746532093932698,7.5220196939511315,1,1,16.570828126395952
84,84,7.447473894706027,6.827745850410121,1,1,16.52794034686324
85,85,0.4356727969297869,4.587703404004496,1,1,22.096679889838374
86,86,4.851614506643823,5.663763421604435,1,1,17.347723512226622
87,87,7.775107170728061,8.66291203689455,1,1,21.77750224016354
88,88,6.920156322908238,0.0,1,N/A,23.194788404577235
89,89,6.885487080096516,4.937229094058148,1,1,23.38661752996867
90,90,1.3810722389786756,0.0,1,N/A,11.17445662763581
91,91,6.090010417723236,5.183300036480133,1,1,19.379872159760218
92,92,0.9280211978188846,0.0,1,N/A,10.437769127995555
93,93,1.319499793987734,2.918857556567531,1,1,13.701929427890477
94,94,1.8165537154739464,9.757817093640224,1,1,20.02782737686187
95,95,8.435463038158543,5.16247336722658,1,1,18.679137624683378
96,96,9.4835695254133,0.3651897391911807,1,1,15.283765774154366
97,97,3.362004909573282,2.4359199806618834,1,1,22.17796137996838
98,98,4.981560345135563,6.772781339646702,1,1,20.94923923468327
99,99,3.127640158092361,0.0,1,N/A,20.162453433863796
100,100,5.965121437386657,0.26565073879405765,1,1,13.3613328369889
101,101,6.4938237105852235,0.6679735398780406,1,1,12.053804741171543
102,102,9.199352697516995,2.5303849711003537,1,1,13.606002003778116
103,103,2.159477169552493,0.0,1,N/A,14.156452742610862
104,104,0.5882726845134922,0.7993213749007,1,1,15.444588855468009
105,105,0.32025057820781466,5.305993341922727,1,1,12.515111725212407
106,106,4.21419635189063,8.315145149914487,1,1,14.844664562380908
107,107,3.5197213438214305,5.139653780024689,1,1,9.813294602492896
108,108,3.6423511014539356,0.0,1,N/A,23.599163880588943
109,109,2.0949236417575214,9.074195990891813,1,1,20.01552710577938
110,110,4.0535132736511805,0.0,1,N/A,17.37924578203066
111,111,0.446280722953587,7.428514241827163,1,1,17.66649337665222
112,112,3.3536260384483962,9.66035539462335,1,1,13.02476855053917
113,113,9.71868004714089,0.06709281677461432,1,1,17.23845540439339
114,114,0.10813669437666817,1.9350187822945653,1,1,14.00471750771418
115,115,2.305668086075068,0.10896991761361496,1,1,7.602336493534795
116,116,4.418420661806155,5.4509619277641095,1,1,16.261516625229252
117,117,8.92369416532519,9.360449553425823,1,1,22.92626041633369
118,118,2.5181047219622443,3.016544892057306,1,1,5.668749570000079
119,119,3.5224978843063193,2.3435816542226084,1,1,15.936962398206342
120,120,2.1221984062475796,8.941940899171248,1,1,16.938528572145678
121,121,7.648783071927045,9.131272703581889,1,1,21.860700738614632
122,122,8.245400777921164,2.5350356000627317,1,1,10.816500407637815
123,123,7.435462134084116,7.251571063651365,1,1,15.641151840929922
124,124,1.6154581466311957,7.409070068392772,1,1,11.403642813708569
125,125,9.162426047450271,6.194359478867354,1,1,21.058367933704705
126,126,1.554267889895714,0.0,1,N/A,6.359294121340907
127,127,5.37247386759462,1.3591934858178867,1,1,22.833899319647003
128,128,9.137707169384623,9.732025188812203,1,1,23.650530501723818
129,129,0.9764754510246532,4.6859775702485,1,1,11.588173663674754
130,130,5.429991592239052,0.0,1,N/A,17.73008708532433
131,131,2.111393026477347,6.298281467005195,1,1,23.447654328717704
132,132,9.814896696522872,8.94797893102456,1,1,21.097234234074623
133,133,3.553304370138216,9.83221544766728,1,1,14.287349034466446
134,134,6.636152072394292,5.25168207242956,1,1,14.890700844416369
135,135,8.78120482901389,8.75565821955924,1,1,17.570626323155878
136,136,9.188274075558407,1.263505371866217,1,1,22.376474535493752
137,137,1.7219889720603632,1.5970658240827507,1,1,13.07175613109662
138,138,5.699228509585508,4.189667613676319,1,1,11.773084923981202
139,139,0.6782290206923591,6.6765111784440325,1,1,21.651013164361927
140,140,0.36879058676733134,7.774638582117848,1,1,17.50650893902374
141,141,4.512908503060906,2.6964785616355122,1,1,14.27090012071594
142,142,4.1629039809797135,7.469867544423419,1,1,18.46669205770555
143,143,8.771729871219803,0.0,1,N/A,18.74903169321552
144,144,1.1622852961033359,1.597298463943917,1,1,16.331157752884806
145,145,8.469330681925642,0.0,1,N/A,20.961391969270817
146,146,4.510349940500287,3.464659359130752,1,1,23.06776457223919
147,147,5.290205248137757,0.0,1,N/A,16.521904436604864
148,148,4.825411726657074,3.115540238539274,1,1,11.843368007210236
149,149,1.9264693656020682,9.0325812025149,1,1,20.380013173693463
150,150,2.713515635862781,8.232635661530935,1,1,14.48919076004547
151,151,9.154728737383484,9.523516504694092,1,1,19.11028119121216
152,152,9.235463400300752,8.20549226932888,1,1,20.49012584560569
153,153,5.390655857819801,0.41646479718628004,1,1,8.794023322091782
154,154,1.877619794131653,9.400291891805285,1,1,13.067244291717483
155,155,5.150059263718797,0.0,1,N/A,12.695741867532018
156,156,8.71630137580002,8.843545831915003,1,1,20.109993717414493
157,157,1.0373964760190446,0.0,1,N/A,18.926403520580898
158,158,7.6033875598827185,0.0,1,N/A,21.701804394572086
159,159,6.486983416555223,0.0,1,N/A,19.087951651062163
160,160,9.02404243093356,0.0,1,N/A,10.215792890037932
161,161,7.492202693364184,9.719000431158952,1,1,17.6169763224396
162,162,8.8138208232649,1.986773123762775,1,1,14.00864378264648
163,163,3.9143541282853747,0.4449524075833833,1,1,17.14705428957624
164,164,1.4658304185322724,5.074713981929988,1,1,22.443483255892165
165,165,2.2959097875242076,9.823341993477307,1,1,12.200198552101117
166,166,0.42679265630479524,9.503449176615106,1,1,11.750437146366494
167,167,5.37575903396771,0.0,1,N/A,6.7767582097265535
168,168,3.0185787178146284,0.0,1,N/A,22.199352610751944
169,169,3.018227179450348,0.0,1,N/A,21.781442907561306
170,170,0.19337922563356535,2.009117484413454,1,1,12.525796741855547
171,171,1.7346464817478047,0.0,1,N/A,12.057506744378962
172,172,9.230516748070865,9.688144430063929,1,1,21.02642888188208
173,173,0.7698519139462434,2.25123167162,1,1,12.133511444215005
174,174,0.41153332956494926,0.0,1,N/A,12.228877550936097
175,175,9.68016612131976,2.056801369834872,1,1,22.731933423940443
176,176,0.8140320180616445,8.023321968544298,1,1,20.593436674861408
177,177,3.0235850581302204,0.7284532845940805,1,1,18.95509541009488
178,178,3.6602425584890383,8.021065165982629,1,1,15.203865120017467
179,179,3.322225505100751,4.9408148664502765,1,1,13.560066284811128
180,180,8.049282618627064,8.884466037567124,1,1,23.316354717583692
181,181,8.51617090459147,4.879024752250702,1,1,14.767408798914786
182,182,5.253686897018076,7.8743491497614135,1,1,17.40964911193566
183,183,5.662577536181069,1.4514460216992409,1,1,19.567104366087456
184,184,1.1943462746074918,6.508699159645467,1,1,12.074826709270702
185,185,8.517453566321105,8.318155015431485,1,1,21.781924411453772
186,186,0.4850571387926861,6.300426518653088,1,1,10.177514985229559
187,187,5.878351014551023,0.6790653407620773,1,1,8.310335480918367
188,188,9.518888645240965,4.595654724672098,1,1,16.801735457176076
189,189,5.908593747953461,3.6305901998027212,1,1,22.209779364858225
190,190,4.785190772979446,2.2590044034483014,1,1,13.01407584829741
191,191,6.905591396628048,4.274312730882538,1,1,17.930404703594853
192,192,7.422171337060544,0.6586861537131428,1,1,9.729948631564763
193,193,8.464155068606843,7.182897478276433,1,1,23.301137734951375
194,194,1.6938930805657504,4.980702392139021,1,1,7.851455322112022
195,195,4.2521936357765,8.635889148097169,1,1,20.59526139865049
196,196,3.143379686865143,6.674009125901456,1,1,19.534782189466
197,197,9.559702345087524,9.080126840378519,1,1,23.839506731000203
198,198,1.903901251286565,1.4724770508288365,1,1,23.65929966634951
199,199,8.881067250177248,4.574097665523228,1,1,13.906265108772061
200,200,7.614787584014033,4.42404261253987,1,1,20.757302146009174
201,201,4.505088355282021,5.582464873968105,1,1,19.906748017921437
202,202,7.809425307627311,0.0,1,N/A,12.654334881443308
203,203,8.605687763922777,2.4003276047926967,1,1,17.122319083669613
204,204,6.230555588829343,6.112171507564393,1,1,16.55673447432006
205,205,0.9528148163929306,6.054896170562801,1,1,23.262443866700167
206,206,6.213780046684886,2.6564998481327073,1,1,12.590922021266195
207,207,2.895569241861935,3.404089110313536,1,1,10.487689641998351
208,208,3.812212662559574,4.5901555054569245,1,1,21.12733656168311
209,209,8.935453230290069,0.0,1,N/A,15.062629160885841
210,210,1.7232422039182127,0.0,1,N/A,18.572242840913937
211,211,1.6081909269922812,7.778296365642952,1,1,21.46998449743011
212,212,0.21257395107106447,6.038957485422997,1,1,7.365200790852907
213,213,7.800063551008179,1.6336314128942264,1,1,10.832572185731378
214,214,0.3327243625872067,0.0,1,N/A,18.147253917664024
215,215,2.2340842670226326,0.0,1,N/A,12.175058949665857
216,216,7.0884730881993,0.0,1,N/A,14.19577381583741
217,217,4.243627636791261,0.30461911375903816,1,1,17.640071173226662
218,218,2.673553559552727,9.588881325069067,1,1,20.874229407826846
219,219,6.212162264821712,0.0,1,N/A,18.10925566669051
220,220,3.976591098913725,5.164627572168696,1,1,19.85823154678379
221,221,5.988106117685401,7.004586013781742,1,1,21.8746632247734
222,222,2.5169510010684037,5.426242844692094,1,1,8.555672815575832
223,223,8.790277673795039,9.211324601051375,1,1,18.954550495449894
224,224,9.027222256587654,0.0,1,N/A,23.58215636991136
225,225,8.043886842788746,2.8622799630373974,1,1,22.586247018370052
226,226,0.3858910901234558,0.0,1,N/A,11.625522459727138
227,227,0.9008127738831928,8.477124362977682,1,1,19.067210190061495
228,228,1.6766972750246623,4.252688509661937,1,1,23.209678197238226
229,229,5.78090085556542,1.146610647221904,1,1,23.022180640209406
230,230,3.791854275930737,0.0,1,N/A,11.01396967790172
231,231,8.307225866269933,7.014814915317599,1,1,20.02908451205574
232,232,6.631727066516615,1.2155992974877894,1,1,9.861257675860454
233,233,9.31422493771975,7.972090714010962,1,1,21.710985981205866
234,234,4.032301502262002,0.0,1,N/A,21.163093236728564
235,235,0.40453058576085166,5.4659815678714585,1,1,20.16351012911683
236,236,1.5431377470442753,6.827134817432482,1,1,20.787220058315537
237,237,1.5279407605954953,0.7250443537916529,1,1,2.5556079161539635
238,238,0.11517292089750941,6.152497743817773,1,1,17.182949576518773
239,239,2.7507957148692896,4.1724439419317765,1,1,16.689813478006954
240,240,1.9915668507077022,1.3670436650550233,1,1,19.061652645005626
241,241,7.945266855475653,0.0,1,N/A,18.89072569730816
242,242,5.831729850204272,0.0,1,N/A,16.90004269373622
243,243,7.647454459812862,3.716011686871523,1,1,18.286297509027087
244,244,1.0957519210022038,7.08463385935193,1,1,8.906424371706047
245,245,1.9036457257594552,6.753290254453207,1,1,20.777151778460542
246,246,7.544479149517627,3.865321912072405,1,1,15.720087921677806
247,247,0.1420730799564085,0.0,1,N/A,16.449272454834265
248,248,9.548621473291805,0.0,1,N/A,18.272250595067618
249,249,8.694495706454328,2.4200444844863878,1,1,18.03811498753667
250,250,3.3523272336513976,7.10663327290019,1,1,22.110980516413704
251,251,6.35585153742915,6.252654511917234,1,1,16.401742729714694
252,252,8.529884733982726,4.32203442772429,1,1,15.56403294058238
253,253,4.127763681180543,9.033708187423008,1,1,20.23154133574419
254,254,5.461765037536628,9.53287460195641,1,1,21.38697906479289
255,255,7.915531590796619,4.766119304755253,1,1,12.840507426085892
256,256,5.482914810363413,7.871492224516147,1,1,17.17716248861168
257,257,7.331620193270303,5.197637633988576,1,1,16.96533763063403
258,258,0.49221934726462524,8.927385540056331,1,1,22.32314624432105
259,259,4.949279798436622,2.779051861329208,1,1,8.125057233825865
260,260,5.753436344142161,5.491117710919236,1,1,20.67603372372841
261,261,1.872808905579464,9.299010074146475,1,1,11.65532507707012
262,262,7.67625509823746,2.794254095982277,1,1,21.372893475840886
263,263,4.555440854810254,0.0,1,N/A,11.884436639833618
264,264,2.2730299877150992,9.494290122830112,1,1,18.771370115013724
265,265,1.5499359227700138,3.6012209241572513,1,1,13.495978321566696
266,266,9.81668478655157,5.260968272645129,1,1,23.91841391884551
267,267,9.625384922566166,1.4447937543176048,1,1,16.180510018079865
268,268,0.513071396375333,5.349512945317735,1,1,16.875669703350077
269,269,0.26616633618270047,3.343700428004943,1,1,12.28424774043066
270,270,9.704674877296958,0.0,1,N/A,18.914331711475253
271,271,6.67954126987448,7.716731898007624,1,1,20.148699309053164
272,272,6.389774199926672,7.754289786350603,1,1,16.440710549088013
273,273,7.606421672652575,3.5297635760036994,1,1,11.674508948383828
274,274,7.821132735366758,1.0048837206241845,1,1,14.794478461335055
275,275,3.9993223356142513,6.395973946648665,1,1,20.1286513176659
276,276,2.1281514413734604,4.901568222128673,1,1,20.14980924448634
277,277,0.8357950939370662,6.675156859452056,1,1,10.544455165437789
278,278,5.724747521628341,8.615149684618583,1,1,20.292804734044406
279,279,2.781230072201335,3.9711279243575683,1,1,22.59289108294051
280,280,6.200289105653811,0.24097190912919397,1,1,7.457077365511639
281,281,6.941450066863819,9.752669526565303,1,1,19.712175946492753
282,282,3.726641385627657,8.621672115705431,1,1,19.700290628015445
283,283,0.4369646305395225,0.9186504542334317,1,1,2.574258229869776
284,284,3.160313579692767,2.818097997102418,1,1,22.971214567688925
285,285,5.951670207057428,9.115807063890994,1,1,19.046705849483956
286,286,1.8096312212499321,1.3400162823536854,1,1,20.505425193443088
287,287,9.86007898995902,9.553826487006615,1,1,23.886438549889764
288,288,0.4102192345890132,2.2320840667535222,1,1,21.353005460588903
289,289,1.6114463648617106,6.560802943984237,1,1,9.309050734938072
290,290,3.1945976229490727,5.210641498613986,1,1,21.25696534179772
291,291,1.0715259711599212,4.889290202109676,1,1,18.715005875495688
292,292,5.242318104946473,3.5654005197617424,1,1,23.356342367956927
293,293,7.264987000560855,5.206736299439343,1,1,21.927239758214345
294,294,4.378928209910579,8.379002229633205,1,1,14.188961290139256
295,295,6.23466388545828,7.996976585542594,1,1,19.11903543038471
296,296,7.941083882670191,3.816438432874162,1,1,15.277286340906162
297,297,4.817546164418066,9.029065638095899,1,1,14.93997530886031
298,298,1.4024203769796462,0.0,1,N/A,13.294900942844633
299,299,5.323609354592044,0.0,1,N/A,12.694753246186934
300,300,9.255422118231603,1.0621175465411026,1,1,21.937893979805757
301,301,2.298839471834102,8.005488024134106,1,1,15.443381185315463
302,302,9.247890192066874,8.524167726995849,1,1,20.341740955782548
303,303,6.493964415127145,0.0,1,N/A,21.235019464757016
304,304,8.027301180056881,7.759352322943665,1,1,22.787879549500474
305,305,7.940218641491905,3.692032944777753,1,1,17.410537284044498
306,306,2.7629298402583693,8.803538832615509,1,1,20.102338362898948
307,307,1.89662869068139,9.685337017139634,1,1,22.45158359533548
308,308,2.106190521414012,5.273303534987429,1,1,22.561883176265454
309,309,0.056507898820008506,0.9247473403870798,1,1,5.705052734253131
310,310,2.1057694433783336,7.106598462266413,1,1,13.868357792160314
