,Job ID,Stage-1 Processing Time,Stage-2 Processing Time,Stage-1 Machines,Stage-2 Machines,Due Time
1,1,3.694412359225452,6.006673702350423,1,1,11.818631186571368
2,2,7.181103906521092,6.389981767568489,1,1,18.782568906768272
3,3,5.90839481052341,6.340717220784743,1,1,22.470326954628206
4,4,9.442903764796531,5.309550004846982,1,1,21.353112276457054
5,5,2.0113329788185985,0.0,1,N/A,15.445737277533377
6,6,7.5624350622560055,0.0,1,N/A,23.376026632355988
7,7,5.466499263129475,4.795736943641092,1,1,14.679853921082639
8,8,2.132209198746502,9.805380770914423,1,1,16.572931628075093
9,9,1.9048773537161656,7.31235020988393,1,1,11.020260566943419
10,10,2.6271296941472277,5.0258797936052115,1,1,9.458214795522387
11,11,4.056887018245642,7.745394176777417,1,1,14.143120894594777
12,12,2.6222445638777216,0.0,1,N/A,15.297732471810544
13,13,3.1314420426789558,0.0,1,N/A,13.924063623053751
14,14,9.738057062783563,2.16976253459759,1,1,22.931166818430807
15,15,9.892643819132465,0.9704899409491163,1,1,18.637664936233087
16,16,0.48334621483086204,2.4259648617387497,1,1,7.953783775915509
17,17,0.9985472285006791,4.764924559078269,1,1,9.273405579910719
18,18,9.62547020649014,0.0,1,N/A,13.236366999563694
19,19,7.8880554796449776,2.6239552598615443,1,1,21.150487189500907
20,20,5.3552025942616925,0.0,1,N/A,23.726503402949497
21,21,8.035908128239026,0.4689477948981313,1,1,10.709419855343109
22,22,5.6451585678175995,6.762281285172573,1,1,23.051286769965195
23,23,4.762183722866014,0.7631257962160332,1,1,11.971452876041523
24,24,6.900112210158246,7.174781646796657,1,1,20.87385007112625
25,25,7.441917522197556,5.496338825570074,1,1,20.030772628684485
26,26,4.62531030600243,4.382543663358911,1,1,13.693016779505204
27,27,7.2012126930457185,6.905761769974501,1,1,17.531681988809257
28,28,8.975574271843753,2.8541008111489132,1,1,15.253872447668709
29,29,2.4580614576208006,9.183990722143989,1,1,21.57293344840061
30,30,8.906655892976378,4.027307319334592,1,1,15.99800919580239
31,31,5.3069261065838305,4.712782228255248,1,1,12.864681151321186
32,32,3.8165847901048733,6.680503976327343,1,1,18.52958377105717
33,33,8.841834602073698,7.137736125603106,1,1,17.62383190740472
34,34,1.0632387583506309,3.07187252836153,1,1,20.872219044611114
35,35,6.845868955206321,8.027400321100957,1,1,18.930802692241002
36,36,8.453472275644499,0.05210528436711215,1,1,9.347872541891201
37,37,1.2725048520998117,7.01455711928256,1,1,17.93519871547329
38,38,1.2196814011826485,3.625363220414315,1,1,18.40175559346764
39,39,9.288925936922835,6.774538092130298,1,1,21.987860230644845
40,40,9.656919270274836,1.1076521225046043,1,1,16.89545195481965
41,41,9.035589797276572,5.421661746850825,1,1,16.0280908447883
42,42,1.5644541191731398,4.473607262942135,1,1,17.360506881020505
43,43,5.690270019504049,0.0,1,N/A,19.150894334320874
44,44,0.8612633742109299,0.0,1,N/A,7.241264153346081
45,45,2.2643216370904016,6.021603405333947,1,1,11.671672042231128
46,46,9.739068243777893,5.954932948391676,1,1,21.05071986265994
47,47,1.3998712504818511,1.072512968625522,1,1,19.24364510751443
48,48,9.401885374266584,0.0,1,N/A,16.092766770172645
49,49,2.6219265371896383,0.0,1,N/A,18.929684224845232
50,50,5.1926462460242835,1.544098478014816,1,1,13.517511790179327
51,51,9.207551064875553,0.0,1,N/A,20.950733259677673
52,52,9.025951612225743,8.014010229108026,1,1,17.955394153884754
53,53,8.111932071115369,2.873527435796409,1,1,17.54326677674941
54,54,3.348879682538801,7.666226179510889,1,1,12.375534798540514
55,55,4.102152811490958,6.698424944192843,1,1,13.463416426430035
56,56,7.850072356435808,8.827915953700092,1,1,22.351499263712437
57,57,6.595341032575309,0.0,1,N/A,17.958212953006246
58,58,8.88671592225281,9.262298085667119,1,1,20.185716170647144
59,59,8.184413446312144,5.357450827649918,1,1,16.608401733612776
60,60,0.3107084948337768,8.283065290431962,1,1,19.37695582835495
61,61,0.5787360449227374,9.65019154933562,1,1,18.58356241986111
62,62,5.496262010805043,8.920784735887397,1,1,18.706773992771346
63,63,1.557682205233254,0.0,1,N/A,19.942836731118568
64,64,5.771707638839434,5.1152576862580705,1,1,17.81442825935612
65,65,5.176398121054823,5.0214776665382015,1,1,21.698099330574323
66,66,3.172498684038999,0.0,1,N/A,16.02598909320697
67,67,2.743702684341769,6.30641276770585,1,1,13.499683776123458
68,68,3.815243123182368,0.0,1,N/A,13.048267700874492
69,69,3.68872886809797,5.3778521697969435,1,1,15.20121113964536
70,70,6.42501770484108,3.447489226075342,1,1,22.571843734296813
71,71,4.215544799419372,8.68460670782653,1,1,23.26537337954393
72,72,4.877879725262451,0.0,1,N/A,20.08481092755321
73,73,2.3538955974117517,1.5947494891354497,1,1,15.572812452899779
74,74,7.414515337144372,8.84857373363843,1,1,19.141659371874358
75,75,8.999762401270115,9.181122292482613,1,1,22.882793679820715
76,76,1.0771333739434508,6.905681000094729,1,1,17.643944011246248
77,77,3.4239827673161383,0.8916616289347834,1,1,20.03098294218638
78,78,0.25204238277298674,7.005272796660464,1,1,17.63118022340847
79,79,9.519698471727619,0.0,1,N/A,20.289505352785362
80,80,6.510965410008871,0.0,1,N/A,8.238144401074143
81,81,9.1767405017062,1.7225295641004679,1,1,12.857185018491467
82,82,4.62393119725912,0.0,1,N/A,18.34903498802143
83,83,3.1840564902536093,1.6793903758369033,1,1,13.429090024915673
84,84,1.8614577909886432,2.9796302123329355,1,1,22.838049288181708
85,85,1.292946143992203,1.6109539362288094,1,1,9.969984377770544
86,86,1.6831125083968157,0.0,1,N/A,15.216726778809896
87,87,0.7059770237729024,1.7234580946394784,1,1,16.95281643717399
88,88,4.536609673505487,9.547640890739178,1,1,22.539405931232444
89,89,9.444964326143468,2.983773478554932,1,1,18.30149119268636
90,90,1.9069771824541715,2.277851984657869,1,1,18.63845723236509
91,91,1.1982019796821552,3.134144895596316,1,1,7.725074679690685
92,92,2.7150987879857205,1.5910715210651127,1,1,20.798819659766544
93,93,0.3072764458087185,3.5704722267509847,1,1,6.128420246189761
94,94,3.3075201729504444,5.914823154257775,1,1,18.20729622081668
95,95,3.9208230700128857,8.355680231507147,1,1,19.004767429203884
96,96,7.578731009936811,6.245896095193803,1,1,19.401865633011106
97,97,4.877689431998279,6.113600220471294,1,1,18.686154667469957
98,98,8.135983583136529,0.2774366588687105,1,1,19.004861664540684
99,99,5.749881407854543,8.342531382076501,1,1,22.244659461230988
100,100,1.1747237062589022,4.8412976107576995,1,1,17.486046816424228
101,101,5.335813171480494,4.334395258938343,1,1,11.482950831783045
102,102,6.396009452409613,1.075019519154461,1,1,9.62959682704234
103,103,0.187357212002367,8.005329098100534,1,1,12.440387520501673
104,104,4.322048383247007,0.800558035693143,1,1,17.913458563729908
105,105,3.408271947601226,8.391965601234133,1,1,14.880894508370922
106,106,6.168785466381308,4.91127298771736,1,1,11.799667418816481
107,107,3.3461245397195594,1.803827102366653,1,1,22.686871024881313
108,108,1.5154970700278125,0.0,1,N/A,2.9467429479631275
109,109,2.398950510357164,3.3128884882432086,1,1,12.796352463116795
110,110,0.5607889213729911,0.0,1,N/A,11.106362152781063
111,111,6.204455508731417,6.500346607422673,1,1,22.927219655689058
112,112,6.352949781644684,9.012746116199088,1,1,23.145795887331484
113,113,6.884712951800594,6.15102694463762,1,1,21.912611326540436
114,114,3.7089722333761035,4.891932443226191,1,1,22.844814214363325
115,115,4.732767903497161,0.0,1,N/A,18.48074239852446
116,116,5.236119509586814,6.449365240125076,1,1,15.729524347611704
117,117,5.251764881236989,3.826934868936304,1,1,22.28575288835274
118,118,4.670151360435525,7.998984869030635,1,1,18.111803119378102
119,119,1.2237973451358442,2.6710917912008125,1,1,5.907968309546916
120,120,4.221403309882571,0.0,1,N/A,6.586371183524996
121,121,8.145497016026004,2.3767846968569604,1,1,21.160340664601026
122,122,5.398935586828201,4.473953988980747,1,1,10.246336945182065
123,123,6.450121897852829,7.9633172932696485,1,1,22.131661200166516
124,124,7.918071514199174,9.679845876937783,1,1,22.356316344877285
125,125,8.842600197473036,3.613858674967021,1,1,16.494484964204183
126,126,5.9731298340843395,8.764856817924041,1,1,17.405183568580757
127,127,1.590276687542178,1.696803663689359,1,1,8.715847711052684
128,128,0.8868911061578078,9.278616713627164,1,1,11.414054482101061
129,129,1.907460675297229,1.6117367751801293,1,1,19.001461649390283
130,130,2.1236719768266776,2.685143119908453,1,1,21.297687922860604
131,131,5.3833668531213155,5.6863116219841,1,1,18.321472107719583
132,132,6.347831039706053,8.235976777225236,1,1,20.81161788367923
133,133,1.8611132845756695,0.0,1,N/A,8.911055804099782
134,134,2.9591638955081487,3.064508089202808,1,1,14.525174411791964
135,135,4.013449992789414,8.173104073357829,1,1,14.920499450691365
136,136,1.1767500000906228,0.6218860397945603,1,1,20.848994856119077
137,137,6.615783953912576,9.465123094183658,1,1,18.298383940234597
138,138,7.276113879398952,5.116975905393671,1,1,18.9162632561502
139,139,0.029605299106003624,0.0,1,N/A,8.607482925860666
140,140,6.392346433603434,3.6936291846349087,1,1,19.419228212826038
141,141,5.1207391870957135,7.756179298972803,1,1,19.783637561110023
142,142,6.494883773741068,3.6780330203502154,1,1,12.760537851357988
143,143,5.554682417662543,4.113611786716831,1,1,15.97527988133568
144,144,3.419192096918924,0.0,1,N/A,23.912248498545686
145,145,0.5423554306889167,2.347886666770468,1,1,11.127518324560922
146,146,6.853119916228335,4.8776364996518415,1,1,20.193425094568003
147,147,8.553080204190856,8.819587329023324,1,1,17.953103638626857
148,148,9.402680432217812,0.0,1,N/A,15.528400482396567
149,149,4.853443765467128,5.86700267448105,1,1,17.946347664431325
150,150,4.856360298239117,9.632373771808712,1,1,19.169290036458168
151,151,8.69145171367028,6.037595899179986,1,1,22.374292917088674
152,152,3.21288013182381,1.39570557428345,1,1,8.185189010015373
153,153,6.977569174098647,2.7112514803781487,1,1,17.966804761607836
154,154,4.855172503176338,0.0,1,N/A,15.239434733235932
155,155,5.3853985515712814,0.6648426239430061,1,1,20.548829115841528
156,156,1.946329786342288,5.446331515431869,1,1,14.668780766362492
157,157,7.664057592698689,6.616332414617279,1,1,20.598006342139804
158,158,4.477308958816657,0.0,1,N/A,19.91945953485035
159,159,6.933766189148192,2.8621656846838284,1,1,14.08682090315936
160,160,7.085916074769457,0.0,1,N/A,21.667405160455374
161,161,7.86385364570858,9.411336421987592,1,1,18.701819836598798
162,162,7.332292341893675,7.523591466599441,1,1,19.11834195365325
163,163,2.862966267741803,1.6730493955422276,1,1,15.819026391920016
164,164,3.6051814622116254,1.6069760787948262,1,1,20.98496463955753
165,165,3.6023541822066307,1.3554537027742153,1,1,21.962439714215417
166,166,2.063463002509389,0.0,1,N/A,9.791737170970798
167,167,9.108631266430207,3.696474663971865,1,1,15.851905159373326
168,168,7.489641627626581,0.0,1,N/A,21.55488701642544
169,169,2.8871155812160945,8.754751740559746,1,1,11.875095147161478
170,170,9.842260665986181,9.95531854902216,1,1,23.448444974639077
171,171,0.05621573585824491,5.250745117673735,1,1,19.533713099024165
172,172,5.951957957818459,0.0,1,N/A,11.558058181364213
173,173,7.377568849990942,0.0824597702409735,1,1,10.675377518603536
174,174,4.644103934004564,3.548364240081966,1,1,20.801688338779922
175,175,3.419013765497183,5.0993425866881825,1,1,23.88085494435169
176,176,3.7248961422541815,5.673942049145271,1,1,16.519874440751913
177,177,4.558854372451952,5.763692318090649,1,1,22.892086077215644
178,178,5.359505297170753,3.7060947962687085,1,1,22.670246686158812
179,179,0.9142049176988809,1.9366158860464278,1,1,16.13778918202729
180,180,0.31480207599280496,8.835194770961152,1,1,9.871652044646286
181,181,7.4260268865865235,7.582130534738795,1,1,19.602154600190197
182,182,2.6105378829296577,7.833020716406654,1,1,21.757318965806235
183,183,8.725732546805812,7.922524687512606,1,1,20.762109977436452
184,184,5.280477158476412,3.0808690351047496,1,1,9.480918243411004
185,185,1.5296065867679287,8.066340869638772,1,1,16.18865183378517
186,186,2.288267078270181,9.327829550457354,1,1,18.574621631681737
187,187,6.252334476893482,0.631738332310664,1,1,12.18999989662944
188,188,2.6907548294911376,4.76019885649303,1,1,21.665858603206118
189,189,8.674762880953429,8.33301592248842,1,1,22.277140867436593
190,190,3.8951326705987057,2.518065581115818,1,1,20.464182537710247
191,191,2.4133080027910814,0.0,1,N/A,19.53020091437821
192,192,9.128500523010766,3.6420052884108367,1,1,14.6654925018705
193,193,3.3595695014188864,5.926822190481641,1,1,18.813567245649786
194,194,1.4855329333817957,2.8620657156141807,1,1,20.30884641126552
195,195,4.070358805829374,8.85927830305688,1,1,17.80675567912542
196,196,9.398851154350199,7.419008684184706,1,1,22.179185141961007
197,197,0.571429365831454,0.0,1,N/A,13.594885240039929
198,198,0.20873425911773213,3.3473431326662126,1,1,19.254530830236085
199,199,5.407827766061199,5.087510844818687,1,1,23.17561314449972
200,200,7.176747343016174,0.0,1,N/A,22.75114217841942
201,201,3.460329259428204,0.0,1,N/A,21.894794409156365
202,202,8.828266383893693,0.0,1,N/A,22.70571373583312
203,203,4.401408997645887,9.479655719520583,1,1,14.743997391388652
204,204,6.856386712976146,0.024968885223648485,1,1,22.40383001391007
205,205,7.691512951025814,5.63830560718022,1,1,19.866865739962766
206,206,1.7211615848741257,3.2263931607813356,1,1,22.755060703339964
207,207,3.747773514951178,7.860208732282027,1,1,21.681991236856852
208,208,1.761492441989887,8.345377157376609,1,1,21.037329962884478
209,209,6.460861597849455,6.4368736388367696,1,1,14.947428819738658
210,210,2.4700595625353508,0.1410083726040623,1,1,4.921540094587627
211,211,0.7898084811429329,1.583397062308689,1,1,2.631095250657472
212,212,3.3263888885562922,0.0,1,N/A,15.589034850465357
213,213,9.386937905291916,2.9155869729181294,1,1,16.674776071631182
214,214,0.588845562700645,1.408811949132922,1,1,6.422308710206032
215,215,9.138001633999236,1.7922838126633045,1,1,21.063353857050167
216,216,2.155288900611785,7.019117986228347,1,1,20.55707951302562
217,217,4.309406082257547,9.728079308683947,1,1,19.24183851358186
218,218,9.328116223666193,6.864131743101599,1,1,18.566783623287048
219,219,3.004321210594638,1.6720250442989348,1,1,11.000050526581866
220,220,0.5390517944217843,3.8010880631769375,1,1,13.969949707696143
221,221,5.124183215053717,7.134322015792714,1,1,22.489594878529772
222,222,5.427274648306572,0.0,1,N/A,23.492584221760428
223,223,6.705191302446709,2.0742541165436243,1,1,9.450339709537564
224,224,1.6236302179789042,6.355688236813562,1,1,22.083820910420293
225,225,9.042381697961163,6.344897615539049,1,1,17.75425491021607
226,226,0.9874157167660846,0.0,1,N/A,7.042414673195577
227,227,9.771859187348147,7.841106323101952,1,1,21.03927465122223
228,228,6.82362856041851,0.9233313822920441,1,1,23.77938014128715
229,229,2.050550965212655,7.940124008317082,1,1,19.36760193761038
230,230,6.905128783865809,0.904157036640062,1,1,22.934375938237256
231,231,6.399621345170912,0.0,1,N/A,20.676853946043384
232,232,2.5111945038405734,3.8782766709458327,1,1,17.077317855625196
233,233,0.44575541261798857,0.18524531140453493,1,1,13.103910952497506
234,234,8.255380593910889,0.9348518971520337,1,1,14.6620500593565
235,235,7.706944529277047,0.0,1,N/A,19.828888496968858
236,236,1.3783182581042408,8.586543266170416,1,1,19.34295790231419
237,237,1.026743781702384,2.0311012024608233,1,1,11.217402281658305
238,238,7.631940216300199,6.661500757098827,1,1,21.5623734270009
239,239,6.64929785469425,1.6705946838574315,1,1,15.289943162544054
240,240,3.933936630040477,9.62211081820972,1,1,16.922559782161148
241,241,5.478327772554882,3.0693043804777655,1,1,9.285056420374959
242,242,0.41564861889030413,2.3915309360702763,1,1,15.164168200968987
243,243,6.088760711413105,5.497511556241675,1,1,17.37765831713871
244,244,8.910097342190364,6.576319710689491,1,1,18.208212085475544
245,245,2.9561777694851434,3.535308181314,1,1,20.179997033953647
246,246,2.7375237160036714,4.315951443243024,1,1,13.914269534512687
247,247,6.17429552052288,8.66722177407743,1,1,17.482771182108568
248,248,9.595302827059806,9.70980314229562,1,1,21.668145105147623
249,249,2.129770871021459,3.348842190195891,1,1,16.036771352413563
250,250,5.217482379018445,2.2439469442114546,1,1,15.382655458830328
251,251,3.8973120714448974,9.738288263011693,1,1,17.953467771557136
252,252,7.996532683038236,0.0,1,N/A,17.800693623162616
253,253,8.140803259714783,8.5543866849953,1,1,18.817372209681594
254,254,6.850997175652194,7.73818434886107,1,1,17.752420471524903
255,255,0.5506427315614659,7.889107986147412,1,1,23.40028349112403
256,256,5.710709175322516,0.0,1,N/A,22.88839312203976
257,257,5.999237810967626,8.5110802025704,1,1,21.6710384691555
258,258,2.3828644277586832,5.536858091294395,1,1,21.736000024825824
259,259,9.168143491195124,6.051920007702417,1,1,16.763572243768884
260,260,8.63982985890418,0.0,1,N/A,21.111418091654684
261,261,2.7871025737250585,7.901201710288737,1,1,19.272868174107735
262,262,3.536013609470059,6.151846260185405,1,1,19.472600852489165
263,263,1.1256289422478527,0.8788373510568859,1,1,2.3832089783291206
264,264,9.163853563739293,4.318458561173227,1,1,22.089903588812504
265,265,5.122091829032113,8.596056027643138,1,1,17.37038572158621
266,266,0.4433270054366123,9.821423350262533,1,1,21.116665049829493
267,267,0.6746890996374366,7.0784918813595805,1,1,13.454103990725034
268,268,6.792589545568179,9.88844622447382,1,1,17.410949946291005
269,269,8.721583215394466,2.1926172054924797,1,1,13.709743450377747
270,270,7.600775541674524,8.428634991239168,1,1,22.568485783415184
271,271,3.233635589166962,2.7312412044309453,1,1,7.560815335638377
272,272,3.248926124102254,8.905764315694727,1,1,17.570947466278643
273,273,3.2135661625374476,0.0,1,N/A,16.5606756964193
274,274,5.46401490769775,7.725193649579468,1,1,15.181483367896547
275,275,3.718281472904904,6.53735060540278,1,1,20.570441092421106
276,276,0.6672475647005383,3.5471177458507333,1,1,7.1131995300269715
277,277,4.014192597304324,7.245332339409484,1,1,15.171911432938343
278,278,2.5082419107372154,0.0,1,N/A,21.73375493425455
279,279,1.8013272174480432,7.27752547345538,1,1,20.82397115486343
280,280,7.025911197285478,9.187858132744884,1,1,16.259500923739605
281,281,7.371164636425593,7.924798936379018,1,1,15.97924045307504
282,282,0.14370896305855752,0.9692072471599844,1,1,23.120936832319504
283,283,8.138647039774941,5.623614263004956,1,1,18.848476630921493
284,284,0.4973553818612586,7.395484680389737,1,1,22.7382488772898
285,285,7.139616847738029,6.885874877245789,1,1,19.22766373815266
286,286,8.867929707382459,6.950788138894362,1,1,18.151520357034535
287,287,3.1203014035530305,0.0,1,N/A,21.956627934066873
288,288,7.884160954423648,0.0,1,N/A,12.733405429793859
289,289,0.13250534121704627,3.0604451738496294,1,1,17.273131838246133
290,290,9.006576397788812,5.601017528928582,1,1,20.733241582072495
291,291,9.841208218083642,0.2316616126492832,1,1,22.231016246924156
292,292,2.172111678191327,0.05212591571814085,1,1,11.02729569470691
293,293,7.289796623052737,1.0691373439012464,1,1,13.702457501391905
294,294,3.422596092987089,8.524037122777667,1,1,23.84968121268637
295,295,4.802507164438899,4.362190720197505,1,1,15.072112983263311
296,296,5.504774289380667,4.974332706213055,1,1,11.004158515384416
297,297,9.408006504964161,0.0,1,N/A,16.843968549169325
298,298,8.918962318477249,4.430686235532009,1,1,17.34328699339112
299,299,1.269838763442328,0.0,1,N/A,6.77209637188073
300,300,6.541193854191364,8.717061215089325,1,1,17.87082155019605
301,301,4.285099444125201,4.062167626093388,1,1,11.920672162585202
302,302,4.737832730316779,8.558679163249726,1,1,18.901495158394034
303,303,0.7128729991469396,5.837587860709652,1,1,14.218464256307806
304,304,8.614597721095574,2.7098578161350604,1,1,21.683770029271827
305,305,9.869061385266896,0.0,1,N/A,21.111364878846963
306,306,3.895102900058797,0.0,1,N/A,7.296004261962499
307,307,4.135602792550536,8.909399625997214,1,1,17.29637468104551
308,308,2.171619807026073,1.8065644808792947,1,1,12.497700401720314
309,309,6.541557708798944,9.957831084596535,1,1,18.824351827910327
