,Job ID,Stage-1 Processing Time,Stage-2 Processing Time,Stage-1 Machines,Stage-2 Machines,Due Time
1,1,0.025521593982170687,8.195052636379124,1,1,9.860510118587095
2,2,2.4847071300811585,9.010350274409596,1,1,18.79543533144269
3,3,6.874856292749294,6.856605129563473,1,1,16.453228999417135
4,4,7.485954673653637,7.752985891813005,1,1,17.888862095755105
5,5,6.895763020463637,0.0,1,N/A,22.62430991948783
6,6,7.541052636944805,6.7552495062032945,1,1,18.657877579651135
7,7,4.461647482938071,5.712530398704252,1,1,22.125323558566954
8,8,5.350165205093039,0.0,1,N/A,17.37910080762505
9,9,4.945665050585603,0.0,1,N/A,13.03870596104989
10,10,5.973080198486114,0.1717799811082832,1,1,10.927091924992638
11,11,6.228337100204811,1.3460175332821112,1,1,9.737746928896577
12,12,7.497541296731834,2.1339576136858796,1,1,21.50581840212709
13,13,9.43186197157793,9.268524548844459,1,1,20.86504259039131
14,14,6.086543103419353,3.8255414227025444,1,1,23.99610387480213
15,15,0.15853593163716595,0.0,1,N/A,16.00375052413337
16,16,3.142220195705182,8.682936626925251,1,1,12.218120259259974
17,17,4.350943314139207,6.181420897193464,1,1,16.83299916622176
18,18,7.736792519270058,9.798103367683984,1,1,22.219760456056026
19,19,6.229502124607144,8.10006028327687,1,1,23.567151556074883
20,20,3.574106652431338,6.820545927075811,1,1,14.161642025073057
21,21,7.719963868808905,9.800709774495738,1,1,22.140771040915357
22,22,1.7824914716451556,6.155523378527764,1,1,8.161559987203034
23,23,6.687287806690291,0.0,1,N/A,19.788736683051855
24,24,3.0497658373937844,1.5394925673313065,1,1,9.510917431727155
25,25,8.862293249066571,4.046618118011441,1,1,20.15666149197251
26,26,7.7863743334718585,0.0,1,N/A,9.099723659536703
27,27,4.937038867474256,0.41250682500164504,1,1,19.58400637470002
28,28,7.521592667039342,0.0,1,N/A,19.80858463809363
29,29,3.8716028000392977,2.857568992651285,1,1,14.490121866600422
30,30,8.143029629636077,8.073677697218884,1,1,17.367111608261226
31,31,4.88251879128672,2.5216723374778094,1,1,21.024221455212302
32,32,3.8397863083301176,8.316653253229013,1,1,23.28258906225455
33,33,4.328549525964933,1.4018481766255153,1,1,10.59249103706803
34,34,1.0844683886421214,9.328199274387966,1,1,11.976923889068566
35,35,1.4721251371218147,0.0,1,N/A,13.69963331578359
36,36,3.6919515668531124,9.262330636277925,1,1,17.885464403605027
37,37,8.248371424130806,3.220350359740356,1,1,20.453612915169238
38,38,3.638180891564925,4.755461642612559,1,1,23.01825870568289
39,39,4.264360736283328,4.812209766471922,1,1,12.310436488439645
40,40,6.218162756829172,7.272118648989297,1,1,15.476067438978628
41,41,9.087954252822374,9.731310219252215,1,1,20.40673723835904
42,42,6.962074273707976,2.5515949952549777,1,1,23.42916174991724
43,43,0.8639646447361049,6.945957186798283,1,1,21.94809445621194
44,44,8.250076899476817,8.164721624387653,1,1,21.1834416071324
45,45,2.3969807925524877,2.808521993035363,1,1,10.706152052303352
46,46,9.096520596851986,0.0,1,N/A,17.466176284174775
47,47,0.3069604917932267,7.088620081705123,1,1,17.101679329181344
48,48,7.958841623569283,6.135099363367661,1,1,17.065769344403638
49,49,2.811105576334639,0.0,1,N/A,7.938438468017553
50,50,8.44021093121573,9.65352314159342,1,1,21.5249130317184
51,51,5.3318710810182814,5.121236432360754,1,1,20.441920158379002
52,52,4.940492893733619,0.0,1,N/A,23.467918248601414
53,53,0.1367320608647904,5.48990937247302,1,1,6.542305020512159
54,54,0.09022819423453843,2.502088696289225,1,1,10.019267105139658
55,55,9.687475915647113,7.41242137253968,1,1,21.73719890658397
56,56,9.79023903773457,5.717103745542827,1,1,17.19539852626092
57,57,0.6462349116202171,4.8528840313004125,1,1,17.60294732086507
58,58,9.062861669172088,1.2115913463019645,1,1,19.73721584838473
59,59,9.752155573947768,0.0,1,N/A,19.392394546991543
60,60,7.055224637367408,0.0,1,N/A,21.044599384330326
61,61,0.4526590802606134,3.4949183320389174,1,1,21.972006730514845
62,62,1.5853909735764349,0.0,1,N/A,19.558541913561054
63,63,8.352149127829597,4.2453740704709055,1,1,23.179080701053586
64,64,3.3683975123150987,7.835455284595313,1,1,18.533381329080708
65,65,0.8711179527931656,5.9180156434026525,1,1,21.750719292734722
66,66,7.81482072000645,5.598376490068867,1,1,20.872519761954297
67,67,6.482600645287974,1.9704747658889965,1,1,23.74755974977296
68,68,1.0756861402199969,6.738911446505246,1,1,19.986624013950916
69,69,9.535094706406639,0.0,1,N/A,22.625460486904835
70,70,3.426116059739519,0.0,1,N/A,5.659224897392789
71,71,0.2351556546913347,6.997047993733824,1,1,17.641753805216034
72,72,4.187537125498712,8.942337900048424,1,1,16.871475092156242
73,73,4.319276892018759,2.484070455214252,1,1,13.001865512520723
74,74,5.590291143189784,4.632679115230203,1,1,12.98009867930633
75,75,0.9365391656666844,0.0,1,N/A,10.041020893795025
76,76,0.047438201350307185,5.317502500988148,1,1,6.386395716474488
77,77,4.6767077025797,0.3890436345377313,1,1,21.40199692475818
78,78,9.912523910863797,6.108082918725025,1,1,19.88830110834121
79,79,8.88549666762249,5.888190607758497,1,1,21.853150145913325
80,80,7.015403499734391,4.351375000414992,1,1,14.666888885135265
81,81,4.715127613646373,7.840763925371946,1,1,13.097390735188958
82,82,3.2501553671441155,8.749959788221343,1,1,20.468132900770534
83,83,0.8559384108930612,2.012496441853302,1,1,16.89511054825057
84,84,6.9211456458676786,7.609807776455428,1,1,18.5231413986518
85,85,0.4754401573579281,3.818089410651707,1,1,16.161519069084285
86,86,0.5986164514112746,4.092987085122484,1,1,15.402332279849446
87,87,8.41195761881205,2.5796008598341205,1,1,12.252889853499717
88,88,6.847562139418343,3.470479694357281,1,1,17.530274260024594
89,89,9.872953668451466,6.673241766033545,1,1,17.247225271699865
90,90,9.500910711741566,3.6844878975130726,1,1,21.56410778890709
91,91,7.980106756698746,0.5482263048827984,1,1,14.524395255587024
92,92,6.0309462761007175,7.054759102978644,1,1,13.405191056401119
93,93,3.7558722310497075,2.0252718639891287,1,1,23.72553684650779
94,94,6.5413309897012715,0.0,1,N/A,19.583657233075485
95,95,3.2925910764802335,0.9140987274506751,1,1,5.622991462525024
96,96,8.9843793793989,6.557258351384584,1,1,22.256275676445966
97,97,7.498801230690326,0.0,1,N/A,18.77552665807744
98,98,0.32077615093037193,3.077071469180539,1,1,18.41850887134097
99,99,1.420596810158311,2.1913416418719156,1,1,15.310586353163552
100,100,9.96073692425748,0.5572288432745642,1,1,13.41757778660741
101,101,8.923655040391205,4.014345961039841,1,1,22.22181221641715
102,102,1.0355217734048094,4.5020220174078585,1,1,10.36076635450112
103,103,2.5722570254428367,2.5822668482681688,1,1,23.16990338219594
104,104,5.379855354468902,9.365247715451389,1,1,17.64311881928372
105,105,6.520348281060022,0.0,1,N/A,21.75387047415036
106,106,9.174002934003543,4.542282963155576,1,1,13.763529484017655
107,107,8.157395800666922,2.823926642359842,1,1,21.300373060585645
108,108,2.9372747297662025,7.5405260192759105,1,1,11.924394591639157
109,109,6.616869931528364,4.625206118846076,1,1,20.89631427462389
110,110,7.309209438927483,5.815326988747408,1,1,22.857747754774465
111,111,4.35952335693837,9.641898333191127,1,1,17.216880830726243
112,112,8.705770226235067,2.929020127608398,1,1,13.11537874880693
113,113,6.781343919120534,8.850018858705354,1,1,19.845699494329168
114,114,0.862528199698932,8.965106405136385,1,1,22.029923787827133
115,115,7.168276922824176,6.024424792366777,1,1,13.916908641061369
116,116,8.573603285490321,0.0,1,N/A,21.308089154647064
117,117,8.902446671274847,4.8574581894265965,1,1,15.034301312624422
118,118,0.766343851131216,7.561785334000425,1,1,14.103742865623861
119,119,9.34412141624456,0.0,1,N/A,19.79185171939726
120,120,7.807903424238436,0.0,1,N/A,9.630656370072561
121,121,5.39727023684505,8.260846649828762,1,1,16.738404600904182
122,122,9.338753155301362,5.837415785102364,1,1,21.22334539241922
123,123,8.726056785987474,0.0,1,N/A,23.365150679075427
124,124,3.3191574576493474,2.0420751201907725,1,1,17.309708113554596
125,125,9.842518253580305,0.0,1,N/A,23.26389196952732
126,126,1.1209530528872136,8.493948406360712,1,1,16.807637807774597
127,127,9.77337922940191,1.7077280610910417,1,1,21.908041197293407
128,128,0.6369968989927188,4.556167362024595,1,1,12.67594280132596
129,129,7.282647144320733,4.72412843986731,1,1,22.77831132988015
130,130,1.354235283037969,9.663891113793214,1,1,19.075578866896954
131,131,3.255434848091434,7.493540981449764,1,1,14.088071714260163
132,132,2.5060916575002032,4.593919500933219,1,1,9.143316741318273
133,133,1.9920095039950658,7.0012716745007895,1,1,22.070324758108534
134,134,9.69492245603133,1.5955761603486251,1,1,21.66414751755153
135,135,2.346185030696618,7.2168592956066995,1,1,12.731897193373294
136,136,7.87789563698955,5.1347179657375115,1,1,18.336119030067586
137,137,0.004842340671468159,7.0000455852630346,1,1,21.694010163830306
138,138,3.414259179518667,1.2807169945368702,1,1,22.851420247475033
139,139,8.05191447660137,0.0,1,N/A,20.325386381320676
140,140,9.784336860831178,6.9609996390130116,1,1,22.46154642094361
141,141,4.698457857273773,6.351538562168222,1,1,23.86531923693262
142,142,4.428780596659532,2.3433224929085816,1,1,9.176901196584247
143,143,6.49550356138635,2.6258367599460906,1,1,22.85891604573586
144,144,7.073674822317596,9.781455527301564,1,1,20.594802308531122
145,145,0.33453208705545134,3.743008743072017,1,1,19.62115365755719
146,146,5.314608059897635,2.727099712480241,1,1,15.97211730625644
147,147,3.2573913991439465,5.513235710893422,1,1,20.43325087070002
148,148,4.8570629623646795,5.751878342605639,1,1,16.215904907601328
149,149,3.879191902445278,0.0,1,N/A,16.402348750522442
150,150,5.382857180702965,3.7594119323943422,1,1,23.374466882241446
151,151,2.1253343303849803,4.233064275015037,1,1,18.05727503641739
152,152,0.012881691499581072,3.400741714142277,1,1,23.46853151739632
153,153,8.548601062906322,9.991382954375702,1,1,21.21842117601527
154,154,7.924534064239213,6.3369550455871595,1,1,19.151169492194263
155,155,4.04868854369163,4.9781664826312975,1,1,13.863567978500047
156,156,2.7549114424623102,0.7766221387309025,1,1,11.157524834585217
157,157,4.13763838433333,0.7266533929542218,1,1,5.726069148945295
158,158,3.4658246387605196,7.756148963073334,1,1,20.101231028517443
159,159,3.4496833809829752,0.0,1,N/A,17.86316023447988
160,160,2.8004792312286675,7.829523697888549,1,1,23.3485586753298
161,161,5.961717272723378,0.0,1,N/A,10.198746752120407
162,162,5.878934338755148,0.0,1,N/A,21.317784957043195
163,163,1.4146417862986027,9.373863966374405,1,1,20.927943878266262
164,164,7.441353283136099,3.335791079350503,1,1,13.030759702703824
165,165,5.4308562078024,2.898320535418594,1,1,13.05284859364537
166,166,2.1653730220762615,0.45088201235222725,1,1,2.8145172126481555
167,167,8.970526078595602,0.5863315639953837,1,1,19.386689305828597
168,168,3.011243695401334,2.5791239745856807,1,1,22.247043042966848
169,169,6.006231108301959,1.415178471910189,1,1,8.118612584900507
170,170,7.415481793880185,4.111168679999127,1,1,18.038236661379365
171,171,2.373193194091913,6.488734750484685,1,1,14.959951832798378
172,172,9.410046628707509,4.888113798452132,1,1,23.81372619955549
173,173,6.795326662182012,0.0,1,N/A,22.30718600632076
174,174,2.720431082426602,2.0990779129426884,1,1,16.045807513434866
175,175,9.55897418545243,0.0,1,N/A,21.619667605461643
176,176,5.802230390748977,1.8959894321013182,1,1,14.044444804552924
177,177,5.132014072508245,1.7916680346679859,1,1,23.934860594814456
178,178,1.326009577987085,6.027816335958969,1,1,17.911533520893578
179,179,1.667509391367693,6.50703654244698,1,1,15.44342242675209
180,180,7.298576502338072,4.036468035559745,1,1,20.60442925261945
181,181,2.95225145425242,3.121197126768691,1,1,11.375279762287565
182,182,7.436900591987193,3.5655411530122496,1,1,17.746654118375517
183,183,8.838978721453758,9.94565881368621,1,1,19.409165360696644
184,184,9.777910053303874,8.568028343957343,1,1,23.369789151253563
185,185,5.731844176357436,8.952158015182386,1,1,22.185098951194796
186,186,1.8614300528028271,0.0,1,N/A,18.723941555284565
187,187,5.060766419745294,9.281138210960737,1,1,18.473105405518034
188,188,5.199437199054034,3.5533231355646633,1,1,22.41921389921022
189,189,2.2085178509915537,2.330472940229913,1,1,11.536231008003432
190,190,8.1302346623526,6.374947449229264,1,1,20.426039875022816
191,191,6.376962280164575,1.3619261024379015,1,1,11.21537134026885
192,192,6.929783402757188,3.384565924180891,1,1,16.54683569803674
193,193,0.2930207109559879,9.327498603714787,1,1,23.510326473755114
194,194,8.879896341145072,8.440856617991285,1,1,20.06211934197848
195,195,5.994392968115502,3.2869967906525552,1,1,13.135796374894642
196,196,5.369770818626152,7.0233206094030445,1,1,22.252397593373637
197,197,2.2130756686196107,0.9617071267049171,1,1,14.044055270739538
198,198,1.29049144706043,8.307540937085596,1,1,21.935923547952207
199,199,0.34264647609902554,1.797852765906176,1,1,2.18854407301857
200,200,0.8925124734924861,6.958676381140977,1,1,11.495567690495601
201,201,7.7333144426913805,2.1987465010421134,1,1,12.384214587996198
202,202,4.28487237712258,6.831123876648149,1,1,23.54171699912866
203,203,8.962348765444494,4.30324099727093,1,1,19.51380764901964
204,204,3.0989279656431057,8.21709272629984,1,1,23.945065440772844
205,205,6.095891804489655,1.3865956578764604,1,1,7.607121868391371
206,206,7.313055948424241,0.0,1,N/A,14.905057774905494
207,207,6.192893052185129,5.718269021087425,1,1,17.699554759270924
208,208,2.4017095658594334,6.7862684739525125,1,1,13.807777300978792
209,209,0.2694513186829284,4.010945583779599,1,1,10.847595787984362
210,210,7.619368328834541,7.978686926616597,1,1,19.434223349231097
211,211,0.3479671475209001,9.774601493315036,1,1,17.09949749321268
212,212,5.947703500379646,2.5755371455825493,1,1,14.898372716622664
213,213,9.085278386838954,1.435695055638373,1,1,11.008418385516185
214,214,9.642201148336731,0.0,1,N/A,18.364350162674498
215,215,9.861431698261503,3.7371763053282936,1,1,14.226431718264422
216,216,1.5810055982423765,0.0,1,N/A,17.231143548912943
217,217,1.8880100610963557,2.6524261934047533,1,1,19.777686606184137
218,218,8.796586152441284,8.586722148239968,1,1,20.768358615834945
219,219,1.1543768708671776,6.117095191450886,1,1,11.027691478575186
220,220,9.517316725900795,0.7021034207197174,1,1,13.801915923627593
221,221,3.658715491015382,5.116297399546839,1,1,21.525015776907857
222,222,2.4791000148337003,3.4222619901159823,1,1,19.460082853326625
223,223,8.993998764408516,6.616094902789579,1,1,23.17146616473994
224,224,7.751236978661119,4.424648149905539,1,1,17.40074112280067
225,225,5.935330470771852,7.098332840238735,1,1,16.712621743770733
226,226,9.909377092248153,1.657589858733588,1,1,19.26027802495344
227,227,8.523759989368077,6.784862928780681,1,1,20.07480383455451
228,228,0.08619475044757241,0.0,1,N/A,19.86308530848381
229,229,0.96308722323177,7.5389304201752925,1,1,10.459269486111825
230,230,5.889363879910034,0.0,1,N/A,20.513239740321232
231,231,1.3208301725767368,0.0,1,N/A,18.96803887352481
232,232,9.941464590995276,9.821052456340576,1,1,23.599304620712118
233,233,7.496586571330457,0.0,1,N/A,16.42799943900318
234,234,2.0200449381175876,3.3161159141724372,1,1,7.504685679608477
235,235,1.7263464912852822,3.8637407105761934,1,1,18.467159609880426
236,236,0.7329786695412932,9.171429815684656,1,1,11.082717793410941
237,237,2.0397517198549533,3.678500965078162,1,1,13.442610373099894
238,238,7.02789144738385,9.07407022088986,1,1,16.84085762003448
239,239,5.7500385281954465,4.501337769623738,1,1,20.506278955213816
240,240,6.289722724824576,2.360545273777751,1,1,13.337845785069089
241,241,4.103408504117136,2.8344808644604536,1,1,12.64077703044773
242,242,5.674476557990017,6.281999400272397,1,1,16.996547174269928
243,243,6.715367164874387,7.520514274471509,1,1,22.570637281013692
244,244,8.212612730939503,0.9572186882495615,1,1,21.179755397996885
245,245,5.523056799318496,4.402859714407933,1,1,16.815249363437513
246,246,9.160175042964362,8.152964785864565,1,1,17.708659892066333
247,247,5.336844772951047,3.012790795386966,1,1,23.4748698176778
248,248,0.706374602243468,7.116477717120182,1,1,23.611985699029184
249,249,2.4702221275437597,9.272695823272102,1,1,23.368718089672477
250,250,8.124435870273487,3.0200985317071947,1,1,14.956411442266335
251,251,3.337984044517955,0.0,1,N/A,10.665361379512223
252,252,6.878651651541283,3.907866472531337,1,1,15.201018486383733
253,253,0.5175183659861371,9.906779114848852,1,1,19.61078507001304
254,254,7.059933533637653,1.9528307315309468,1,1,17.38196336985718
255,255,4.837873718276229,8.618335759428179,1,1,17.853256725666558
256,256,1.9234217067617831,0.0,1,N/A,21.72921842766014
257,257,7.253150807444127,8.82739753442681,1,1,19.392112866865887
258,258,8.305664120444074,5.603331193151451,1,1,20.086650858108193
259,259,9.089903196803231,1.6999285834159117,1,1,14.449197634270812
260,260,6.9709562724308025,3.208911992489597,1,1,21.505449888630302
261,261,4.5566761517295085,3.014196047990627,1,1,13.137481590951525
262,262,9.260448655800552,3.5925235421059387,1,1,16.53300968981368
263,263,8.0932461638304,6.243945770542197,1,1,18.638753202124775
264,264,6.304130800094012,0.0,1,N/A,17.811506873505568
265,265,7.1753932959817845,1.579952071573476,1,1,22.53325214453445
266,266,5.988683194222608,5.964864927194058,1,1,12.287348086022046
267,267,3.9723356288640743,8.190521340154989,1,1,15.677563785256805
268,268,7.150987670062019,0.8160676262475164,1,1,14.511298650833323
269,269,5.01179100418391,9.400846866669845,1,1,17.42137534479037
270,270,9.333403649832215,0.36713835011949914,1,1,17.306579407170375
271,271,9.959231510645886,6.19397988158112,1,1,23.932414070932108
272,272,7.026152221328793,8.788694901398815,1,1,16.2714267789358
273,273,4.960629276118153,0.0,1,N/A,12.138406134217888
274,274,1.759386385238696,0.0,1,N/A,5.062978015417538
275,275,0.9771017742517296,0.7314293121312099,1,1,4.770680045730473
276,276,8.671674491810577,4.117657094817472,1,1,21.86024126591561
277,277,3.602032365431435,6.363086912107452,1,1,19.223817421485492
278,278,5.827761698539607,9.175568182177123,1,1,15.568369335888871
279,279,4.376256256960196,5.014476558500533,1,1,21.824682317226056
280,280,6.427993117235831,6.203613910104552,1,1,19.8173312010586
281,281,8.116197618926972,6.521799365738231,1,1,23.43218142029179
282,282,7.75707969276815,5.778317293719962,1,1,17.97397872696516
283,283,3.022613260779111,7.734385397938412,1,1,16.153685339667355
284,284,0.6226781873479315,8.835253831213546,1,1,19.318082390430938
285,285,5.644233523316967,9.722080452176748,1,1,23.9889814723758
286,286,7.976537049003889,9.122950657279215,1,1,19.66308611613685
287,287,4.574057102264443,0.5827056747187842,1,1,16.137986994150026
288,288,0.2527710458316601,4.649040148531977,1,1,6.0405223130126595
289,289,5.046327173262416,9.436229943992108,1,1,22.46198580528909
290,290,6.937242264654673,8.762484238111098,1,1,22.246454283636233
291,291,3.566407105458663,0.0,1,N/A,15.815602888302523
292,292,0.09381326144190072,5.018906718085257,1,1,7.06202302415216
293,293,1.43024520062768,1.844554682750148,1,1,11.734319788133025
294,294,1.570476738916986,0.0,1,N/A,22.579737621773766
295,295,2.0621238629040803,9.059875756365987,1,1,11.495939577554948
296,296,1.3555320836433238,5.317936342623085,1,1,22.796454066691787
297,297,4.895136821174269,0.0,1,N/A,17.53157099392653
298,298,7.835273718371765,2.3559920652409208,1,1,23.507449219113234
299,299,5.857558482423727,9.598338143941463,1,1,18.083266956883055
300,300,9.893649714564596,4.278944573293527,1,1,16.473905086404084
301,301,8.243735978935833,0.28012917705097173,1,1,22.026938703914546
302,302,1.5048595734514525,5.5054573016517665,1,1,13.480947858067978
303,303,7.320015244724797,2.316585980814737,1,1,13.512222512586874
304,304,3.174166502098854,6.4940701347596885,1,1,21.981428481592985
305,305,5.896357351143349,0.6834316078525393,1,1,20.5571224312097
306,306,2.026124313285856,5.692560504083078,1,1,15.279989883079573
307,307,3.5094710790764214,8.858081987097375,1,1,20.02999746106275
308,308,5.859636610020363,5.390272634206669,1,1,15.468319760137437
