,Job ID,Stage-1 Processing Time,Stage-2 Processing Time,Stage-1 Machines,Stage-2 Machines,Due Time
1,1,3.852385824342208,0.0,1,N/A,19.3941542764151
2,2,2.4224564989275277,2.938640159425101,1,1,12.895869101330712
3,3,2.332037594629661,1.1978588079957075,1,1,19.627089421752654
4,4,1.3541291636910169,0.49445183467642373,1,1,21.667603801945823
5,5,8.394665457527287,6.7648930622642265,1,1,23.881483791724005
6,6,6.221023961929798,4.146517077498455,1,1,21.49316133902861
7,7,5.986177386839772,7.82380928065405,1,1,22.158254068775673
8,8,4.002840074174284,0.0,1,N/A,21.377476070976165
9,9,2.254449893132678,0.0,1,N/A,14.983985342836124
10,10,6.178025237272296,9.754892399654132,1,1,18.587973247692954
11,11,5.665439001349924,7.433915878074656,1,1,17.59531481672033
12,12,9.855190504249787,6.627389247108023,1,1,16.554543995021664
13,13,5.693074620817042,8.270913289528199,1,1,14.885058917640237
14,14,2.6278171148530083,6.980553269694227,1,1,15.9436758832293
15,15,0.31838896279174134,8.967242153128876,1,1,21.60016959509561
16,16,7.06930321778831,7.708251204557472,1,1,19.549965589992993
17,17,9.741940016772029,1.9666283834697074,1,1,23.858664193974292
18,18,8.891324252714178,0.368778992169303,1,1,11.995448789632967
19,19,4.742160381232139,0.0,1,N/A,16.5762549434006
20,20,4.642139854645464,6.050778855798743,1,1,21.8169988002568
21,21,1.6881834071708002,7.930232774737823,1,1,23.366598211372768
22,22,5.370839156971304,3.088991979695562,1,1,13.086422020564168
23,23,3.760009872335821,7.856679096417544,1,1,19.885466092967743
24,24,1.1485771069878759,9.139327632903898,1,1,15.349733998099659
25,25,7.8142675575992,0.37702347068229836,1,1,8.912299189933208
26,26,0.32704378402461765,5.704305240638028,1,1,23.378302776060494
27,27,9.84648560260821,6.691253075233225,1,1,17.891184479120557
28,28,2.499426841075504,4.1480277191855475,1,1,19.656823701116952
29,29,0.8831621842644066,0.0,1,N/A,13.426894955920027
30,30,2.9889237859548414,8.113435559513032,1,1,14.367509522992744
31,31,5.958268878809808,5.160299889653857,1,1,14.252362357185639
32,32,5.149519324678279,0.0,1,N/A,17.383302175506365
33,33,1.2988037583106615,0.0,1,N/A,12.505726410138047
34,34,5.51441532777257,0.0,1,N/A,21.076207993933153
35,35,7.864732359108361,0.10637286409434843,1,1,21.776148611398945
36,36,2.556449048168845,6.262059829880794,1,1,20.566483033915098
37,37,1.5901933063870133,3.9823812248455215,1,1,12.45028041354109
38,38,2.2205747545365417,9.70076307303328,1,1,15.240878761970372
39,39,9.394852820618858,0.0,1,N/A,22.964156022258848
40,40,3.925019182916425,5.718679687660602,1,1,20.10448668299492
41,41,2.4538044279123827,3.9686583760809735,1,1,9.61334735200261
42,42,7.1680910712045165,0.7509121279561171,1,1,14.71404661659397
43,43,4.532661476531099,5.985685992139901,1,1,21.555693940151812
44,44,4.723477947521124,4.425446900399908,1,1,15.17503499826459
45,45,5.793558394289224,7.743182552919709,1,1,20.012055237319284
46,46,0.13180175977357655,0.0,1,N/A,14.310053718678907
47,47,1.1595814494697088,4.0482920139280445,1,1,6.955656066097408
48,48,3.4902748018309318,0.0,1,N/A,15.20403944042273
49,49,7.434719929716933,2.027849459593789,1,1,19.82501536359525
50,50,5.968637484905298,0.0,1,N/A,16.113075309560223
51,51,3.2128407191526587,4.531293632226737,1,1,16.770468976805468
52,52,3.5993626749908927,0.0,1,N/A,14.342805638862036
53,53,5.055929556167222,6.736422916885685,1,1,16.7775966439459
54,54,9.170168019146388,0.0,1,N/A,16.938406407689012
55,55,7.398137797614693,0.0,1,N/A,22.283025446182393
56,56,3.6888061400744645,8.544444343549568,1,1,19.718672388648095
57,57,4.591240001081653,0.0,1,N/A,7.1629383221682215
58,58,5.241843685824051,7.571999231766141,1,1,20.128067245615725
59,59,1.8539058540245124,6.084996919906359,1,1,17.89634035455086
60,60,9.493465792466537,4.582937566655754,1,1,20.89651423826292
61,61,1.3770033565423412,3.8041873902819354,1,1,6.678288487438991
62,62,4.947938814146183,3.878138252448884,1,1,18.027299519245588
63,63,4.6084979492715235,0.0,1,N/A,16.07416275614205
64,64,6.487734027186383,0.0,1,N/A,21.27949748674711
65,65,0.6805557680576813,8.628997248700527,1,1,11.991334102481368
66,66,5.796958658682392,0.0,1,N/A,21.090076137058066
67,67,4.886898278876397,3.863107072100397,1,1,12.541880564738616
68,68,1.1266221159764966,0.0,1,N/A,22.685966079311882
69,69,7.013240982682065,7.152838807813753,1,1,20.88853221185314
70,70,5.889632995484025,7.909115843569854,1,1,19.63167829083902
71,71,7.50588986611886,8.140528135201686,1,1,18.67989340324963
72,72,0.7531614906009865,2.5715606833878923,1,1,3.756235715776181
73,73,0.4702533169368861,2.5752395255141036,1,1,18.900208109685934
74,74,0.21799575670434002,7.761191972225616,1,1,23.33297127950214
75,75,8.767373109274114,6.137779401811518,1,1,21.192003386797996
76,76,0.09216354197234988,8.445219658518296,1,1,22.39598307007845
77,77,9.803176585604698,0.0,1,N/A,11.09338621523558
78,78,6.714349975823298,5.923317059304716,1,1,17.79873662379929
79,79,9.930921522383134,0.2867859373657222,1,1,22.78252927798063
80,80,5.622797571316287,3.351823450652213,1,1,18.71914065230181
81,81,9.484430125166366,6.183649594578263,1,1,21.250091950048265
82,82,5.96203144743665,5.154274157284871,1,1,22.901984046522898
83,83,2.167267421670349,6.696354303526089,1,1,8.898910703217101
84,84,3.805317046349396,2.2640138601868873,1,1,21.791704552986232
85,85,3.710652479926011,4.237510673925363,1,1,23.60668199750295
86,86,1.353962605257053,7.585242514595166,1,1,15.199220529854207
87,87,5.012812715128856,6.185701253580584,1,1,17.709309777393177
88,88,4.498574111544327,6.277474973283997,1,1,23.946565819965148
89,89,4.196915742926325,2.7748194147491234,1,1,21.527017226939304
90,90,7.301803543970877,7.4237782278266895,1,1,20.496767108433975
91,91,5.216071150711983,0.4329710324202285,1,1,23.38445785005247
92,92,2.946046984700864,0.0,1,N/A,13.85723649589695
93,93,1.7128728713158248,8.7768885935605,1,1,18.672928285323664
94,94,4.87126245082988,0.0,1,N/A,17.540539788173405
95,95,0.23171049988273573,5.941129560239715,1,1,12.337783401920733
96,96,0.9931790738356672,2.823516031324088,1,1,6.98432720273053
97,97,8.608866343033526,4.20397576092054,1,1,17.60087590369228
98,98,8.365681023042388,6.119409271949133,1,1,19.310957905637
99,99,7.273979040049825,5.728896606296399,1,1,22.94114404708828
100,100,3.650332973395485,0.0,1,N/A,22.80821739735417
101,101,9.216216083448352,4.983687072906934,1,1,18.660741197035538
102,102,2.1522803755080555,2.735340413261058,1,1,22.53866419851579
103,103,9.58951002718157,2.6626833815110174,1,1,19.752207858218057
104,104,6.419631005056189,0.0,1,N/A,16.338966008485265
105,105,2.0896289302381597,0.5421423907521594,1,1,7.597960152892766
106,106,6.967099743158033,0.0,1,N/A,20.632916612719384
107,107,3.7780483186050384,0.0,1,N/A,10.892081036118329
108,108,3.430707433263671,3.319916500270821,1,1,19.26383279123362
109,109,1.5675249125903523,0.0,1,N/A,12.29967484256581
110,110,2.0118405185287056,6.910544555263804,1,1,21.02880018041639
111,111,8.513560228199074,6.143876302720699,1,1,21.810303736496145
112,112,7.176272740270795,1.947033883022935,1,1,16.04894579360147
113,113,2.488002917736203,0.0,1,N/A,10.137298472279898
114,114,6.958325036819767,6.028560209583421,1,1,20.57054910135634
115,115,3.588332755012643,1.2878156214255454,1,1,17.83078919561898
116,116,7.372183387875629,2.516581949802349,1,1,17.849974009525468
117,117,5.990136626437828,8.098170707265481,1,1,17.370426064694488
118,118,4.397373375205777,0.0,1,N/A,17.697401132334473
119,119,7.711853220827505,1.2424196785183617,1,1,15.443507572518536
120,120,7.381110855011663,3.9261516277596065,1,1,16.48237980806511
121,121,6.13961237298046,0.5244261065083888,1,1,19.252732940171292
122,122,7.988851648963786,4.994473908572075,1,1,13.451461603541315
123,123,6.165234483101736,9.269355705842038,1,1,18.18523207687202
124,124,5.326053134741691,3.447273156964712,1,1,15.178347501828647
125,125,8.873717426083875,3.9146482669359406,1,1,19.988839513988623
126,126,8.665505417381832,6.774494363328119,1,1,23.396104536151938
127,127,1.0248923160703216,9.41834217573367,1,1,21.944772519241667
128,128,9.045006071791427,9.69349093190553,1,1,21.334182590832047
129,129,0.2008747326624094,8.373648166957624,1,1,9.309503337521681
130,130,9.315425911043677,9.596786824103932,1,1,22.94248938098968
131,131,1.9074677648571359,5.7113415001419146,1,1,22.526416363077978
132,132,0.8614042805919786,8.904793185617667,1,1,18.110422026455566
133,133,2.606170297589826,0.0,1,N/A,14.883436822386464
134,134,0.4902955216097782,0.0,1,N/A,12.601251770902973
135,135,0.08851127456416696,4.691974903570082,1,1,19.240774531041502
136,136,8.25547902508754,5.482473278096579,1,1,19.98671949382634
137,137,1.1116290169003085,2.291860881685064,1,1,9.934551426298269
138,138,0.05285454228537101,1.9162911136906058,1,1,15.283842426631937
139,139,2.192797971350763,4.860149892946383,1,1,23.983135676775227
140,140,8.144908418029676,4.642543938908801,1,1,21.70830777285306
141,141,1.824513004697792,7.912675567449853,1,1,22.54981803544293
142,142,5.613296980275937,0.0,1,N/A,17.14563823320379
143,143,0.9260690423423701,9.724782616090064,1,1,16.200776368216587
144,144,7.6052270520819265,5.730388295677642,1,1,18.262273779072565
145,145,7.706684921965832,5.650469451681253,1,1,21.939556838307283
146,146,3.6640835183124376,0.7033520169611063,1,1,20.430768993536606
147,147,7.868120021319039,4.908751537937245,1,1,21.046034235619967
148,148,7.924406888366441,0.0,1,N/A,17.147741757099087
149,149,9.875293938449765,3.056019683792086,1,1,21.826298377721667
150,150,9.624185420545981,0.0,1,N/A,21.636699027519672
151,151,5.306348776211916,4.65193684629493,1,1,12.607665079640851
152,152,3.718638920641747,0.8736681137486635,1,1,12.423441557684576
153,153,6.912470712764872,4.262101455680912,1,1,20.91399298910646
154,154,8.469742076747325,4.259175478207602,1,1,13.279173449445132
155,155,8.425452923512836,5.125774170996681,1,1,18.69271763004713
156,156,8.835487345317407,0.0,1,N/A,21.351480288117592
157,157,6.809553915301012,0.0,1,N/A,21.406748308833507
158,158,5.477820661154594,1.6826250116060248,1,1,14.573600384066296
159,159,4.562816936206944,1.9248455367453687,1,1,9.178479409806753
160,160,4.992982614419886,0.0,1,N/A,18.826086134332883
161,161,2.471956921238255,5.989359864432117,1,1,8.918850758741396
162,162,9.139285071924569,1.5828705795546794,1,1,14.15441019895146
163,163,5.794532995456839,8.862824606477588,1,1,14.900184452045696
164,164,7.085505287053629,0.13908564962982206,1,1,12.662858047987761
165,165,3.484318795730701,0.0,1,N/A,14.306343225051567
166,166,7.049174077291875,8.42918777047591,1,1,16.97388176742898
167,167,3.6672575949062782,5.246379689419105,1,1,22.582971522642353
168,168,8.209062471788203,9.92665945647111,1,1,20.735092550064937
169,169,6.274434466091784,8.195624431504797,1,1,18.38330330355135
170,170,3.607965545015257,4.728538133764767,1,1,19.702092028755175
171,171,9.810539752202454,5.141690493394993,1,1,23.849087747664612
172,172,2.722455895890017,0.0,1,N/A,14.972803091382444
173,173,7.7730104439319305,7.343161203797946,1,1,17.84754822663308
174,174,0.8105389017619857,6.045614887650615,1,1,9.040648301820395
175,175,4.092257627295275,0.0,1,N/A,15.801499165472123
176,176,2.4313307878157078,2.3894841201405814,1,1,20.829898999477177
177,177,8.097920073185731,6.511762091980756,1,1,17.909788521326245
178,178,7.601943637347194,4.517214891152954,1,1,23.985705895645168
179,179,7.622954678248737,6.038683154439383,1,1,23.543420126299182
180,180,7.717562196773896,0.0,1,N/A,21.307354333630272
181,181,8.282568748318758,7.0560234149266545,1,1,19.53523133992633
182,182,9.889932503512616,0.0,1,N/A,20.820524149036153
183,183,1.35811614931595,6.126450361972688,1,1,9.45438255889153
184,184,4.5785452943755764,0.0,1,N/A,15.73931604895372
185,185,7.5163283607174325,0.0,1,N/A,14.649965874235962
186,186,3.300096853062633,0.0,1,N/A,15.865389141455292
187,187,2.8018306562164286,3.0328877372856686,1,1,16.08158804772801
188,188,2.400649917830151,3.769673410227746,1,1,16.100807184645717
189,189,7.660611936775675,9.980023468711444,1,1,22.332697122367644
190,190,8.86560553401472,9.177503280499382,1,1,22.962795865938347
191,191,6.72928949248624,2.6421886427231045,1,1,19.45639272742848
192,192,6.951926218872827,5.620519946250217,1,1,14.487398647117187
193,193,5.750291375188833,2.4354209940659244,1,1,11.903058074770597
194,194,0.3712046666975721,0.0,1,N/A,22.195713769822543
195,195,3.69879764231942,0.0,1,N/A,20.487590435489636
196,196,4.609399003851779,0.33913154650199173,1,1,16.738414421394232
197,197,6.948064615958359,8.214375481064648,1,1,16.162546807860775
198,198,2.6984134744420363,8.234106775050416,1,1,12.526069029535137
199,199,6.660401176471447,9.080630290147237,1,1,23.031343289526127
200,200,7.765953715438723,0.0,1,N/A,11.502091155092575
201,201,5.5837972946135555,0.0,1,N/A,13.81469243706952
202,202,5.8176298827738755,6.0514317757119995,1,1,20.920769959916072
203,203,3.333570330810236,8.591257132847156,1,1,13.955661484833367
204,204,8.237905659766646,3.52896098014802,1,1,15.157914692541828
205,205,5.656755526003571,0.0,1,N/A,11.91981112867565
206,206,2.5764704372342386,9.160370725047894,1,1,17.723116074039744
207,207,8.633949925267293,5.85400603242517,1,1,22.572961781346933
208,208,9.950330021374024,0.0,1,N/A,21.503983064768004
209,209,9.07210442559833,9.83157321515802,1,1,23.1679326417363
210,210,8.084701047290654,3.8749161767681284,1,1,13.940677713053175
211,211,9.071400532530305,3.0540554320825475,1,1,17.813823517350194
212,212,4.340216477811563,0.7569409743297795,1,1,13.764097540445015
213,213,6.074020201544345,3.767621035160741,1,1,21.024179777994398
214,214,5.187559432805506,4.870731474208268,1,1,21.078870476072588
215,215,9.30523142068427,9.313186782773617,1,1,20.53489942916942
216,216,1.0514068822082878,7.331398268693335,1,1,15.331740791531335
217,217,7.917913762708607,2.923800703809002,1,1,22.427788172574267
218,218,5.454848690543762,3.1529538820238545,1,1,16.753433682732705
219,219,0.9862496491081474,2.856075196727331,1,1,5.022568864857966
220,220,4.870073122718358,5.449930612483992,1,1,22.5828532246615
221,221,2.2318749641304656,9.866965812012547,1,1,17.505592951621356
222,222,7.458512784530258,5.207186062302526,1,1,20.706090794365124
223,223,0.7166385998188751,6.083542288772562,1,1,20.521761580623934
224,224,8.96536078166944,1.4089837762786028,1,1,21.614309821997608
225,225,4.108438787590779,0.0,1,N/A,10.920306269303666
226,226,8.62182236784705,0.0,1,N/A,21.983046042471372
227,227,4.033711695557085,5.988681264585198,1,1,23.050266794048753
228,228,5.39750887094669,0.0,1,N/A,18.43173788316955
229,229,0.3879143597161916,2.8010291527760875,1,1,12.77411720802153
230,230,8.097112033406551,4.845953297556894,1,1,23.958350718953657
231,231,2.6701213458305117,3.634357423226837,1,1,20.870712234702168
232,232,8.251758338063496,9.506584196954183,1,1,22.098709460815442
233,233,2.3924866323237994,6.642792202105859,1,1,12.736760817612716
234,234,2.3451989695917574,9.562055377422258,1,1,20.775816235948202
235,235,4.367573453296259,1.423634611097666,1,1,16.92375144890162
236,236,0.6254660761784581,6.247950435239975,1,1,14.227885049865698
237,237,2.5699620506276863,9.301730797397024,1,1,15.007389971818652
238,238,9.518893173220725,6.620478492446128,1,1,16.7780383805458
239,239,4.730416913767737,8.414921685152205,1,1,19.834846575201137
240,240,8.904992778056265,0.0,1,N/A,22.094962462612845
241,241,1.3254579348658657,0.0,1,N/A,13.65712559363591
242,242,7.73246603817045,9.80739566741096,1,1,19.33288573599324
243,243,6.255214672763264,5.056877934434669,1,1,11.686988113394216
244,244,3.291286674175785,8.368961026265406,1,1,22.939642590630562
245,245,0.5598539763610033,6.9593985362169875,1,1,7.57396001091482
246,246,0.5831763531558276,7.001136801337095,1,1,19.054411362949534
247,247,0.28473154102035325,2.963384145302105,1,1,6.4546115198846605
248,248,6.747895127251856,0.0,1,N/A,21.38307338858166
249,249,3.476925960009909,0.0,1,N/A,13.155017225571028
250,250,6.189957351517429,0.43463621180390155,1,1,21.097289581676854
251,251,5.827286627166596,8.829469064928348,1,1,18.471454432868214
252,252,6.743003074248893,2.297868743763666,1,1,14.037239854795837
253,253,5.122908792659765,6.001280902027165,1,1,13.981462431639448
254,254,4.007060439044187,6.397649724960772,1,1,14.610874494983275
255,255,5.814602625409247,3.5276348347969044,1,1,22.12404782520612
256,256,8.102682814071859,7.203698781756794,1,1,21.164057454847054
257,257,9.068933658469986,7.964586048568884,1,1,17.448977378970433
258,258,2.102055501736432,5.853192277881297,1,1,20.85748169194458
259,259,2.9154661142586216,0.31999110768622385,1,1,21.517461242375948
260,260,1.822663959678249,3.1437430989940895,1,1,15.80689206344227
261,261,9.680300376332344,1.0588275929435331,1,1,19.555644595851938
262,262,1.1141257229703072,6.433041927506985,1,1,14.77941037870627
263,263,7.622447109264811,4.39013752521131,1,1,21.71525207573669
264,264,5.608515818412735,0.0,1,N/A,22.868464047352553
265,265,0.945660524333426,1.875572130242753,1,1,12.174680242660106
266,266,9.529989973775134,0.0,1,N/A,23.020702015640712
267,267,2.4581313806471083,0.7635150241332689,1,1,12.701711500014223
268,268,6.720343461634553,0.0,1,N/A,16.257464636959163
269,269,5.519403456708806,0.0,1,N/A,12.88303633373489
270,270,1.0506739355804118,0.0,1,N/A,20.1533673429903
271,271,7.959662827452036,9.263713582246085,1,1,22.63455397361212
272,272,3.80607718366028,0.0,1,N/A,18.85861409193104
273,273,2.723542042344861,0.0,1,N/A,16.429628751975137
274,274,6.775677318465888,7.990195371674737,1,1,20.181809283889635
275,275,5.155458473305633,1.0311430429389357,1,1,10.688263030445107
276,276,8.68460124506882,4.266982244820098,1,1,13.999778296669817
277,277,3.558731642280849,0.2122729769221643,1,1,4.29388717252077
278,278,0.10415713842982455,9.235855839656079,1,1,16.993345471466384
279,279,2.435141602206837,5.24330587298102,1,1,12.030108020209
280,280,7.394998054902907,8.241031873614343,1,1,23.57416454325092
281,281,1.1321698922691559,0.0,1,N/A,19.89583028140384
282,282,1.1579537343743285,0.0,1,N/A,14.005552150839353
283,283,9.454651746852145,0.0,1,N/A,20.88384728826284
284,284,3.384998244513876,4.14534873212572,1,1,19.55358668085944
285,285,3.2470367980669277,1.5474962316352348,1,1,14.931145275876498
286,286,1.6722146621486267,2.77369660722405,1,1,9.558147135742088
287,287,3.788655488081849,9.244282083329255,1,1,19.734299806136328
288,288,9.145088583717833,3.290270445172845,1,1,17.808894372717923
289,289,5.687648986574468,6.4427635535926004,1,1,19.17677751484951
290,290,8.475199193151553,5.472482040741733,1,1,22.284237827244127
291,291,4.964069127709,4.0002971667909915,1,1,9.424857123969197
292,292,5.019090104109786,3.462276740560636,1,1,17.211339393847844
293,293,5.026475529138505,2.875063745806281,1,1,11.170721162783863
294,294,9.068823836640403,9.874359696107707,1,1,20.752001301046885
295,295,4.988521451634401,0.0,1,N/A,14.3392463155427
296,296,6.429211185450989,4.060064728799436,1,1,15.733152887305454
297,297,1.691872418300493,4.172101726782717,1,1,13.970863294137095
298,298,0.9364314270542939,0.0,1,N/A,13.319032112883779
299,299,9.316320998622977,4.245002238950074,1,1,22.236498296598782
300,300,4.232073985182467,6.587863541972285,1,1,11.93834010007605
301,301,9.861650890855634,2.9008259119646285,1,1,19.988189662362434
302,302,5.495478168504273,7.328537894933032,1,1,12.983572984632705
303,303,2.180370971334619,0.9464448070035869,1,1,19.713923393077938
304,304,8.186642727414114,9.24566011884416,1,1,23.352303661618205
305,305,4.285701818020959,2.4478919058693727,1,1,18.717897724462304
306,306,4.844375481087473,1.6506440859118376,1,1,16.36146951452158
307,307,7.968092125122031,0.0,1,N/A,13.754245306233488
308,308,3.9391411298999723,2.613451022238049,1,1,11.768259105891321
309,309,0.8847519146147953,4.895827364807397,1,1,12.49430989837778
310,310,5.480583517436267,5.215721118413242,1,1,18.250603785285353
311,311,5.963431923654058,0.3912795916333056,1,1,17.950799721630098
312,312,6.54811520572816,2.9089539557152913,1,1,10.67058974964932
313,313,7.410271966357396,0.9496402623696509,1,1,22.40368455599864
