,Job ID,Stage-1 Processing Time,Stage-2 Processing Time,Stage-1 Machines,Stage-2 Machines,Due Time
1,1,6.845530687702066,6.466138889492818,1,1,21.33441091149166
2,2,2.4955438893969317,0.0,1,N/A,17.62087870559373
3,3,4.72684989824077,0.8830279105274652,1,1,18.512530581325027
4,4,7.898317488576962,0.0,1,N/A,13.715312776342191
5,5,5.409013193596954,8.775518389738846,1,1,22.887986674237823
6,6,4.759049740829575,8.906190349278468,1,1,21.31552309487903
7,7,7.0051975615650255,2.397360794191271,1,1,20.623672718668004
8,8,5.441562211705342,7.82448485203556,1,1,21.224286760999842
9,9,9.723216402602132,3.65205434899754,1,1,15.68772212244292
10,10,1.3708364182737698,1.8271160664715558,1,1,10.009412111174333
11,11,4.245631143601349,0.0,1,N/A,21.40171225369092
12,12,0.36528562770210327,6.63566443721751,1,1,21.49340551850438
13,13,7.471432256311915,0.0,1,N/A,17.243163224923883
14,14,7.9688390743439435,0.0,1,N/A,18.03657036535386
15,15,1.8888219830876485,4.745748504804842,1,1,7.531535150495126
16,16,5.035443059600377,0.5935099696457657,1,1,13.498234125959945
17,17,4.7272086007635075,5.944584329120341,1,1,23.784494111303754
18,18,5.351893655981796,0.0,1,N/A,21.156241598135125
19,19,0.37313471794489517,1.5258151519862095,1,1,8.010871664194514
20,20,2.533536288416215,0.0,1,N/A,9.726437057273273
21,21,9.574942265526484,0.0,1,N/A,19.557808464546433
22,22,2.9637993702556544,0.3712395490356146,1,1,22.060114863546655
23,23,4.468941697434092,0.0,1,N/A,22.830069989209065
24,24,2.2579612086546885,8.514465189602692,1,1,22.923180426802453
25,25,9.299778864237556,9.884826544572658,1,1,21.150110095644635
26,26,5.191720787686251,9.944473206969441,1,1,16.506120450490506
27,27,1.9385576933525972,9.422619279459122,1,1,12.968393824374592
28,28,6.027898451379815,0.0,1,N/A,21.418347949793596
29,29,5.801358505367551,0.0,1,N/A,21.135515660258832
30,30,0.6971534495735865,7.597731216712593,1,1,13.010566216370712
31,31,4.772010275618667,1.429464261397061,1,1,10.53672034983845
32,32,1.1620063278895087,8.425738011268677,1,1,12.299676394563587
33,33,4.093234085088479,7.763525913532867,1,1,18.92153939343358
34,34,3.2633019260991047,0.9354067660047094,1,1,22.610301421573354
35,35,8.936415505848492,2.1410164489290615,1,1,20.13275028802134
36,36,8.936647171347328,0.0,1,N/A,18.905855267867707
37,37,3.3311121892341324,2.46435927822364,1,1,13.729942925175177
38,38,2.5403637232864353,7.112910216533782,1,1,17.33392168756912
39,39,8.41256705232637,3.1316623284102074,1,1,15.619434637243952
40,40,8.87419803058419,1.6527226093868441,1,1,22.39715470975861
41,41,8.649176521167988,3.899709277805515,1,1,23.750183950904123
42,42,4.719783890699968,5.910142744483167,1,1,17.632496726821667
43,43,1.428474201291755,1.731423313806365,1,1,9.298895839752955
44,44,7.274269812556638,5.525703423568796,1,1,13.574660185774032
45,45,1.1223292569624166,3.138379139143701,1,1,6.855598123576821
46,46,9.227699798410233,5.6664781187801125,1,1,18.094227263429023
47,47,2.418084986919572,9.850970144794374,1,1,21.392691682699578
48,48,3.023500475003723,0.0,1,N/A,23.12633169235138
49,49,5.010644433921256,1.170606329177164,1,1,16.0277401700887
50,50,6.09632932707969,9.654424896723395,1,1,17.610964131237054
51,51,2.5754068940216768,0.0,1,N/A,10.576476061260298
52,52,7.5765548480669125,9.261950481761085,1,1,21.3426815860442
53,53,1.1821253813268096,8.084662241417362,1,1,15.810451127533916
54,54,7.125843931446074,4.646368628190759,1,1,23.92239209264845
55,55,2.664899643193026,5.513284401814675,1,1,9.194778641562879
56,56,7.762432762721522,1.128953416271491,1,1,9.915042246494835
57,57,4.747558452492793,5.944721833915345,1,1,12.36385120648827
58,58,1.2406258932966974,0.0028923857473073245,1,1,10.006576057523748
59,59,5.434314957880297,1.846043027080374,1,1,7.939447724673752
60,60,0.32782335337830815,0.0,1,N/A,16.87451821617291
61,61,9.055192591560075,8.771732386760075,1,1,19.864326550300945
62,62,8.630058657546725,4.122822912482723,1,1,16.63441225790836
63,63,4.840355180846201,2.2715412016251024,1,1,9.509649379169586
64,64,0.39915233810706496,3.6865727893198166,1,1,23.998321401119426
65,65,9.212921846953204,7.696913943775253,1,1,18.557160773264005
66,66,0.3821289757611912,2.3410987657474545,1,1,5.3282115266010095
67,67,9.860976392060659,1.1064731518102655,1,1,15.987054392514437
68,68,7.608347698212691,8.462398216995998,1,1,20.505356598322972
69,69,6.851787758788596,4.8722545898872145,1,1,22.973166070421165
70,70,9.843151209411735,0.7092260393709782,1,1,11.873757445779185
71,71,9.5034226481301,1.2421674437147445,1,1,11.446366221075978
72,72,6.04037514232095,5.349991453620872,1,1,12.836849918761654
73,73,0.8987261216124887,4.902914158594545,1,1,8.490175603700902
74,74,1.850146229005074,0.0,1,N/A,13.084370014482136
75,75,4.186267456400855,2.9890556517065447,1,1,8.576566906241451
76,76,9.14127399303163,9.0422694986763,1,1,22.64120420227342
77,77,4.715715477990447,1.6782689376617799,1,1,21.23924852303564
78,78,8.116503076351448,4.217706303224683,1,1,23.579911635831564
79,79,2.1036973689586125,5.61428448918717,1,1,17.782945417677197
80,80,3.0611830702510923,7.066696090293619,1,1,20.05527786710611
81,81,9.171178781049633,9.02598936204134,1,1,23.36652946319299
82,82,0.09566372631304221,0.2704351541187111,1,1,8.537208075486344
83,83,1.3118719799877498,3.647506202823151,1,1,9.774689995120958
84,84,7.824014127421382,7.357372347120716,1,1,16.655794257517474
85,85,8.442652280545817,2.756347520332989,1,1,23.128950084729652
86,86,5.044696585767472,1.9497732368683596,1,1,12.728686806236775
87,87,0.9988198292493256,1.35169170765985,1,1,23.4024327277858
88,88,2.244751888603309,0.18701852982824452,1,1,20.320109788254225
89,89,4.033380929579417,0.42940369212566054,1,1,5.982091106385123
90,90,0.19054073304199726,0.13119220930094655,1,1,11.730164603560167
91,91,1.923950175359026,0.7550658797032905,1,1,7.7190048433561955
92,92,4.533246460196364,4.840208400817145,1,1,16.790645193688444
93,93,3.6304903386814047,1.6391613063024169,1,1,15.785102796567756
94,94,3.1496364997677473,2.920214592465374,1,1,9.868740032346716
95,95,9.641203196557255,7.1909216968433665,1,1,20.165189030497256
96,96,6.667675022947206,6.377169384671591,1,1,18.84644589079138
97,97,8.223940428870465,1.854821643104324,1,1,15.122904319376648
98,98,2.018202346709135,6.250363352043973,1,1,13.59595191341538
99,99,2.414608850081159,2.5440981919982852,1,1,6.94813387656059
100,100,1.3205340245571917,9.832940789471744,1,1,19.16160192247648
101,101,0.28243904908006434,4.182285416686746,1,1,5.395041934997267
102,102,2.3884520849307433,7.887879993993545,1,1,18.098250024878013
103,103,9.510383859604705,4.623548715502351,1,1,17.475068071647545
104,104,8.680856512529779,0.0,1,N/A,19.742256373627928
105,105,9.874156073035463,0.0,1,N/A,22.705174912880878
106,106,7.740882440716279,6.53704038244188,1,1,14.477449092177148
107,107,3.1102722044392395,5.344912454861561,1,1,23.752353143134293
108,108,3.291952257301288,3.5081587688596527,1,1,10.981710860599637
109,109,9.3847020977328,0.0,1,N/A,21.92294915016092
110,110,4.0110588315358235,1.6402407259691454,1,1,14.375055792489025
111,111,2.60225124164418,8.452611848527155,1,1,16.11419361220112
112,112,9.124956836652308,1.4835026024326015,1,1,13.425690982784388
113,113,4.690678331729737,5.4026798440890484,1,1,15.144546313754102
114,114,7.770049798384791,4.558050345479822,1,1,15.159909613065965
115,115,9.922182850131682,6.596373136518157,1,1,17.854141059375234
116,116,3.7229987419410104,0.0,1,N/A,10.415452322791412
117,117,4.008719937799095,2.328819172675909,1,1,21.23714622627383
118,118,5.953798722894993,6.989395279736127,1,1,20.729661459318322
119,119,7.745299788163792,3.4929744641411933,1,1,14.824507816528623
120,120,2.564197421919925,1.1643556021729062,1,1,6.488475480168594
121,121,8.964373981383359,0.0,1,N/A,14.513102730861505
122,122,8.582129902189253,4.2306433427074985,1,1,19.565829798060996
123,123,1.9024640824636785,3.444915597695004,1,1,8.86406375668247
124,124,9.210911127548677,9.744382740803623,1,1,18.95984362614886
125,125,9.642102987183833,1.6475592412922102,1,1,15.34882948015586
126,126,3.696280762050723,7.842414589944893,1,1,14.548992226509602
127,127,5.449607933044519,9.89960463493308,1,1,17.165640600297753
128,128,4.178863604849441,9.71886367092983,1,1,22.309211874165268
129,129,5.135595796404601,5.244334587536156,1,1,11.892100825993266
130,130,3.9339735387893757,2.8688095626133334,1,1,12.118417208519128
131,131,7.526014018284979,0.0,1,N/A,11.342604440566033
132,132,9.953158679625831,2.057411431673825,1,1,16.166107234957757
133,133,1.115338084311066,6.391726282770994,1,1,22.938200404524032
134,134,8.328016545385656,6.87735856186835,1,1,21.84413817226333
135,135,3.8311737914090105,1.6982982348370612,1,1,7.184408343511109
136,136,3.0178225476061726,8.604560567646137,1,1,20.579705524892397
137,137,8.241519926794336,9.236484008779765,1,1,19.549846618914415
138,138,9.54383880121879,5.282583489259308,1,1,20.25695818152173
139,139,1.3237646911952627,0.0,1,N/A,19.784198799710026
140,140,6.484528973637136,0.8709194845368762,1,1,8.752466102475548
141,141,6.459629445661311,5.74959523788332,1,1,14.281936071970396
142,142,9.747146183053083,9.495482818202017,1,1,22.078669398551607
143,143,5.5290077845347305,0.0,1,N/A,19.05997799836085
144,144,9.921651098851898,8.099438712042833,1,1,18.71659006683543
145,145,1.5760252951765574,1.623680829623556,1,1,11.887247202518648
146,146,4.4977193338248895,4.672673642784302,1,1,11.822353486782713
147,147,8.605037080529623,0.0,1,N/A,18.51766241186499
148,148,7.903378299071099,8.182272878373613,1,1,18.01179828806353
149,149,2.6481108188367286,0.0,1,N/A,10.357312511719112
150,150,3.67692466575406,2.2405188038796373,1,1,13.386508625862989
151,151,3.2571828158237324,8.867560767854368,1,1,13.047899516293944
152,152,4.605087542879609,3.7114895423241236,1,1,13.056902435355838
153,153,2.047622991757141,2.254608213140349,1,1,5.8536839290326315
154,154,1.5497534755529607,9.38568213224242,1,1,18.695908164809328
155,155,4.896242386326341,5.918793915404797,1,1,12.97718067185315
156,156,7.825877993455687,4.137984545260416,1,1,22.577600829355262
157,157,0.14903871566867566,2.9036479161928366,1,1,22.977906055998204
158,158,2.6387817862109886,7.109818709482641,1,1,13.639311706083083
159,159,4.028636761812163,0.0,1,N/A,21.15350779477096
160,160,9.011243639804157,0.0,1,N/A,17.241177628911817
161,161,4.599361518926682,1.3345113579083712,1,1,10.071675097778538
162,162,7.436463082949627,9.872750975207703,1,1,23.06808981140039
163,163,0.8783711101850211,5.8781707384989605,1,1,19.689022849445408
164,164,9.71522526697169,0.5911345244133737,1,1,20.32789984515705
165,165,6.088538980843682,5.389933058575097,1,1,21.225842442517024
166,166,1.4825037159184151,6.395188182184574,1,1,19.70793655805625
167,167,6.217425023276134,8.603576299030923,1,1,16.225345622731076
168,168,8.047835165631898,0.7033085102462033,1,1,16.73881716356537
169,169,1.7330974107315622,5.032863666309419,1,1,13.995815838867681
170,170,5.454561894456045,2.393342055855392,1,1,20.348550094246356
171,171,5.862783513806635,0.0,1,N/A,18.240402638438177
172,172,7.402593499877032,0.0,1,N/A,19.897210408445535
173,173,4.508730877610847,6.425644746118785,1,1,15.198965729985455
174,174,8.691614338938384,1.523913030362496,1,1,16.68295104810799
175,175,8.296899886276286,7.60861489545989,1,1,20.464946757738467
176,176,4.1443845322072725,0.0,1,N/A,17.23093309571844
177,177,6.884069282075763,1.0034331833948262,1,1,19.27741147301191
178,178,6.22247808016977,0.4323138565733531,1,1,22.32549504112037
179,179,9.483799311179812,8.703965476619334,1,1,18.87301494188462
180,180,8.773936441109806,2.50574700864438,1,1,12.768649261167129
181,181,3.5715585106455503,0.0,1,N/A,13.975872224797477
182,182,8.65284241124226,1.3290021821899067,1,1,18.565116707517248
183,183,2.74666929541308,0.0,1,N/A,13.89551102312991
184,184,0.6290631113567491,4.676521900196047,1,1,19.728452699681238
185,185,2.0053852030657926,8.071792621374618,1,1,19.068960273489495
186,186,2.865569152070524,0.0,1,N/A,18.28424392657293
187,187,8.582786564105815,4.867775014784223,1,1,13.703791675405956
188,188,9.864509190659739,0.0,1,N/A,19.325383531546883
189,189,6.5078207070254015,4.7592970031239545,1,1,12.135812303849658
190,190,6.982034012498505,9.261671458214419,1,1,21.042371625512367
191,191,1.3306970178924515,3.826785186384348,1,1,16.00971234321169
192,192,2.6810683436050073,8.556085331026559,1,1,23.715896494549007
193,193,3.858837417317207,7.179450238302271,1,1,21.08351292629941
194,194,5.189931036483189,0.7877415015737044,1,1,13.534677636796713
195,195,0.8265312187271834,1.2107040656720736,1,1,18.861639848360433
196,196,4.80952764837293,6.110422630413761,1,1,13.288365214791462
197,197,7.0710220201469545,3.7459077804343544,1,1,11.915052962638228
198,198,3.9603585249710207,9.372251545301399,1,1,22.74324251551984
199,199,4.249554067960255,7.11219406941611,1,1,22.354118226305296
200,200,5.895348791025176,1.4519961005024706,1,1,22.8915102752508
201,201,0.3809918319785388,5.739629992696211,1,1,17.47181817775577
202,202,4.418655563321527,4.388010549359924,1,1,21.809471361528097
203,203,2.9607703197658255,5.249345212063522,1,1,14.087080717667273
204,204,7.763894778126228,3.5553325141286996,1,1,13.340826443330304
205,205,9.169317422500255,0.0,1,N/A,22.808016992346815
206,206,2.55799033239171,0.0,1,N/A,21.988073005380265
207,207,5.309550501617282,0.0,1,N/A,19.01408816150592
208,208,6.0329106271278485,9.667977937297659,1,1,17.023045709821325
209,209,4.231376668060936,8.114448422543475,1,1,23.563000848972038
210,210,4.101553642121103,1.027344288260037,1,1,23.65586106251072
211,211,6.44342028530691,3.132228088696891,1,1,16.55914541363706
212,212,3.5219327033482717,3.8983132043721094,1,1,17.417703110689896
213,213,0.7097635317792006,0.0,1,N/A,18.982324950329744
214,214,5.474488707929846,3.8386559661578423,1,1,9.926077658001432
215,215,9.72526682873885,0.5319460281045973,1,1,17.083530963975303
216,216,9.217297306543697,8.585625789623581,1,1,21.671594885518846
217,217,8.806943304899736,0.3442946438604655,1,1,16.573193028016888
218,218,9.432039815057113,0.0,1,N/A,21.353100224447978
219,219,1.9935122537449879,4.129023199384245,1,1,21.100386776261047
220,220,8.171551198258335,0.0,1,N/A,23.44341933466447
221,221,6.30360891242069,7.4717909919509795,1,1,22.55518662077968
222,222,9.079305996267331,3.6566926961908655,1,1,16.77448465587919
223,223,6.590159976287623,5.759708876187837,1,1,21.829174356917534
224,224,1.4452913629381459,8.720470327060566,1,1,17.997167889156515
225,225,2.757364822620747,4.223710629237515,1,1,9.909099211427366
226,226,4.446260601341141,4.815207161814574,1,1,16.837364363687936
227,227,3.9105713079580817,0.9257059152200198,1,1,6.700756895727224
228,228,2.229888274271705,4.167877640950853,1,1,14.098156171041271
229,229,6.493478620749905,3.7129024409047098,1,1,14.488844248114418
230,230,0.6236177985585634,1.4430189825622097,1,1,3.7230863744282314
231,231,5.626865928974172,1.9288361592273429,1,1,13.21539119996563
232,232,7.682065969817381,8.710518529944983,1,1,16.864780276127775
233,233,4.0338029263304165,1.2679909705645465,1,1,11.920902774355302
234,234,1.2616414606717752,4.111279466994611,1,1,15.932057289119896
235,235,2.494815542238118,1.9113335667054066,1,1,20.36844540831709
236,236,2.5034880018064563,2.5601647570027994,1,1,8.918580602494298
237,237,5.539954850274642,6.062810433630953,1,1,20.327193762361915
238,238,5.412545418605896,9.803502352146365,1,1,22.85878675816882
239,239,7.401124741535855,0.0056916816393781655,1,1,18.70652151642221
240,240,4.5867084027292515,3.0554003032314214,1,1,22.951379983794688
241,241,5.53525655142357,4.721531998630612,1,1,18.39027812837748
242,242,7.119177515654446,3.936078964742178,1,1,19.490949163600195
243,243,9.58816716242148,0.5987925238538294,1,1,14.378918823211906
244,244,8.170133123663973,3.801749999878672,1,1,18.360032462473853
245,245,9.350877967263058,3.0630121176500413,1,1,22.353161968283512
246,246,9.470876725866045,3.222214411253054,1,1,19.856776002256606
247,247,4.076581473989477,0.835586494580639,1,1,16.623486675885342
248,248,7.070840204782933,0.0,1,N/A,16.99155776427613
249,249,4.21103000525412,1.636837856656106,1,1,16.9374574725595
250,250,6.856749297822081,2.2754325685212526,1,1,14.44051122229827
251,251,1.292046147531879,4.152747048023217,1,1,13.86785782038137
252,252,6.236654816222394,0.0,1,N/A,18.305454394973594
253,253,6.012415811639929,0.0,1,N/A,12.78118511983521
254,254,9.672582138104932,7.544793533383852,1,1,19.430949481198024
255,255,3.603025852637327,6.909601872822533,1,1,11.306189547258162
256,256,7.495251418514015,4.596808198433791,1,1,12.272045760751018
257,257,5.275563010016519,3.246737931324981,1,1,20.91066685754418
258,258,0.3819994391048642,0.0,1,N/A,20.811013470950435
259,259,3.25236156153079,0.0,1,N/A,11.085895811619356
260,260,9.76744988589838,3.8895607074742267,1,1,18.77392489998462
261,261,6.556191959745316,0.0,1,N/A,14.917249257336213
262,262,7.866661165188665,0.0,1,N/A,17.11507732476735
263,263,6.6195448344810615,1.2096118700747471,1,1,19.274263470613576
264,264,1.306903081242674,2.73109378801602,1,1,4.214889781246419
265,265,4.208386195089947,2.692485360365069,1,1,22.52781547551072
266,266,8.901013782723187,4.508600246784025,1,1,17.240899760094393
267,267,1.851634717745072,0.0,1,N/A,12.640185049362547
268,268,6.60980028851243,2.485238715052145,1,1,14.969739121968171
269,269,0.19796085222489324,2.512016343008525,1,1,18.595792895603598
270,270,4.352625859204698,6.849125007140665,1,1,17.908883504850227
271,271,2.9182694916339083,3.0724039946488935,1,1,15.613135477650017
272,272,4.599039440647575,5.915208804447083,1,1,17.62762359382832
273,273,2.8041356166012097,2.486874757081041,1,1,23.38930845716091
274,274,4.71829486479069,0.0,1,N/A,14.834529506179756
275,275,1.5556359698532596,7.206833640707138,1,1,11.195131450821119
276,276,6.772797899804975,6.496831150122021,1,1,13.507142810145316
277,277,3.786422381813753,4.942248875470028,1,1,22.80013596745589
278,278,5.197106314181209,9.167303833373762,1,1,15.781599437097539
279,279,1.0033200521348018,9.950707844805343,1,1,21.873603511222008
280,280,5.1690501264136115,6.400058218932979,1,1,11.962763426926491
281,281,3.6817565440967615,0.0,1,N/A,20.868285599305857
282,282,8.732168986394548,1.3050532225509548,1,1,22.891033449671767
283,283,8.620872605425186,3.8703231957691764,1,1,13.950709859945844
284,284,3.320991762104039,7.984809139137004,1,1,15.863689947445211
285,285,8.087575111874742,7.6672384592038245,1,1,16.13594503841486
286,286,9.27062212872954,9.545480676349367,1,1,20.70986254601756
287,287,5.226908360209558,7.202889745104008,1,1,18.00643383168298
288,288,8.831160527477609,5.4763042013883165,1,1,22.718003135478277
289,289,9.2328163644919,9.475742973103,1,1,21.113778190527025
290,290,6.238601357858004,9.697260518000185,1,1,21.373134427912454
291,291,6.237979906471063,6.851653004711411,1,1,17.508067967324614
292,292,9.914289708736037,1.1481333185867981,1,1,21.407091053286106
293,293,2.856294256514056,0.0,1,N/A,12.973783740765253
294,294,7.8018893657702995,4.162796516483558,1,1,12.363004291070222
295,295,2.6488762262771512,3.6322524883269356,1,1,17.164018115884602
296,296,2.41705665702032,5.095971224540924,1,1,23.856729044679504
297,297,7.200992990656204,2.814511216761284,1,1,23.600445321520088
298,298,7.301868079293471,1.6229630787594462,1,1,11.729245448616775
299,299,2.293909935697249,8.744596063655232,1,1,16.25463841195355
300,300,2.6460356913669125,5.105580604352868,1,1,19.690296040991065
301,301,7.479400987315028,2.5206388997426,1,1,17.20527304353936
302,302,6.670939906332737,0.0,1,N/A,23.758588460209765
303,303,2.1368689448273948,0.566688233740319,1,1,17.46164844600864
304,304,1.0734033857333325,1.411571467535574,1,1,22.39427372162767
305,305,9.697920987781409,1.0086457766473977,1,1,22.10550242130682
306,306,3.7006767890873937,2.9730101241106532,1,1,20.72025266162909
307,307,1.971601733045506,3.4396088911146263,1,1,8.63791444690189
308,308,7.091732948214018,3.9008078300291693,1,1,19.95984511927948
309,309,6.533868420116811,2.4396816271536945,1,1,13.11339069791352
