,Job ID,Stage-1 Processing Time,Stage-2 Processing Time,Stage-1 Machines,Stage-2 Machines,Due Time
1,1,5.935505786724017,0.5522675882676964,1,1,7.249908410963867
2,2,1.4638562516807319,1.1807320039588765,1,1,20.018713564669444
3,3,2.4811470519824095,3.4115804683404116,1,1,22.869728114864365
4,4,8.334327470208699,8.35035795452649,1,1,23.126031418652662
5,5,2.105153353595023,6.2869520792694855,1,1,19.120141134623328
6,6,6.928195531166434,8.306813025083319,1,1,17.941648792799125
7,7,9.28911487051479,9.563168255172705,1,1,21.205740544830395
8,8,6.742560668958496,2.2195305512894112,1,1,9.046212183936076
9,9,1.0326005639422853,8.756496220060843,1,1,20.29351175909939
10,10,7.073317198025198,6.770030919636905,1,1,19.94836610488785
11,11,6.108184440133579,0.0,1,N/A,17.784523080667938
12,12,1.323005906759015,1.2926307889290256,1,1,13.984319774933892
13,13,3.164361881625084,7.889123177233326,1,1,13.249972225963859
14,14,2.080986752225119,9.446898859538194,1,1,17.566874389014032
15,15,0.37781508723547574,6.484083950244836,1,1,13.035157838436483
16,16,9.237148700678475,2.780772755545425,1,1,23.907300763453037
17,17,2.0628528022442105,0.0,1,N/A,13.113153632710496
18,18,8.923962054125287,7.443613017685422,1,1,22.269541259688317
19,19,5.845375565439093,0.0,1,N/A,23.14332800725936
20,20,9.49784543825552,0.0,1,N/A,19.987530529029975
21,21,9.874357478224237,3.7096813788208314,1,1,15.652426310406172
22,22,2.747805140031926,6.398369462398624,1,1,20.040000946373034
23,23,7.703357127335532,1.157726190993873,1,1,19.98387944607103
24,24,6.719270281950061,2.5870210518117154,1,1,18.018235638767464
25,25,5.165977370531637,5.628900725086131,1,1,18.19898643692578
26,26,3.506730412278639,0.0,1,N/A,17.150287926534112
27,27,8.015823845084904,2.6380186480484946,1,1,20.13125966286109
28,28,9.562093319366943,4.5694410618443095,1,1,17.357059206928035
29,29,4.869040984252758,5.649969816562097,1,1,10.714105819312978
30,30,3.8087584058706927,4.6540651718554225,1,1,20.847843477637788
31,31,4.669503205760421,6.596082615419591,1,1,15.283387249102526
32,32,3.971442154230942,6.72158300963535,1,1,14.543269031319598
33,33,5.398120828919169,0.0,1,N/A,19.074593569268558
34,34,8.13336612901497,0.7769692077400281,1,1,15.126936427698505
35,35,1.8106160606232458,0.0,1,N/A,13.817184621276787
36,36,5.35992484393814,4.348491003605226,1,1,20.852107977280784
37,37,2.2949196245345007,2.596744525727064,1,1,19.39398603372634
38,38,2.23645247887559,3.262781273383082,1,1,11.293051292941737
39,39,3.5756634928335,2.6943860420585706,1,1,9.293845545325908
40,40,0.6072208860804784,4.822345519977736,1,1,23.569759639763895
41,41,1.839156598301066,0.22450754778935544,1,1,7.132643981006471
42,42,6.968717379646739,0.4200033287733129,1,1,14.08806114009516
43,43,2.176652151973515,9.106733825573613,1,1,15.731773361678147
44,44,1.6371446501538878,8.263230072490716,1,1,17.326355158693005
45,45,5.833468119404161,3.870797942067452,1,1,9.916663085530173
46,46,2.6926362004127724,6.38272232767842,1,1,18.279466975045985
47,47,9.276374673889768,0.0,1,N/A,22.187314395904604
48,48,6.665750689398751,9.565264650064766,1,1,19.67850328337201
49,49,3.004097523753513,3.615009669853179,1,1,10.883767344033775
50,50,5.099097804544947,9.607170793435488,1,1,15.443443133585946
51,51,5.370403332068213,4.617304484560033,1,1,11.216083193266616
52,52,3.970763722647288,8.457043752111684,1,1,14.106864791390977
53,53,8.984360715081905,6.3829883534141025,1,1,21.750359051140904
54,54,6.876615198709295,6.280576845734853,1,1,15.486393583900163
55,55,9.853699022092508,4.138757886990252,1,1,19.075800500091166
56,56,6.379643286784016,0.08230234616076748,1,1,6.755941448629487
57,57,5.2739484503838385,2.387633669593945,1,1,19.157605038783096
58,58,4.105180385428842,5.67055349161353,1,1,19.709425567192056
59,59,3.0937196348962925,2.554249359368547,1,1,22.962241937745
60,60,1.3314604654953521,5.974509227923255,1,1,23.705347725620836
61,61,5.080947634034617,1.247417569466357,1,1,15.434151981080527
62,62,4.180551941947153,1.8555918907556601,1,1,17.728830696866712
63,63,0.8167319210049118,3.1292132729256705,1,1,12.41091230823018
64,64,0.13404694298157382,4.812365335611373,1,1,23.7674089959239
65,65,5.6466070363919085,3.938582588954187,1,1,9.921292139298478
66,66,4.275818437166211,8.289265333019655,1,1,12.72578364197706
67,67,1.5520692203838116,6.2703374338966125,1,1,13.059591114047924
68,68,6.593465478259279,5.409930928110064,1,1,13.670785310891963
69,69,8.966515032041494,8.984890177203905,1,1,20.64885895715548
70,70,9.366831636478699,0.03159486858766991,1,1,10.363647471841995
71,71,1.8323198433490395,5.9798267394184705,1,1,8.249371185207918
72,72,7.73180842906748,0.5644477817529536,1,1,8.547799310923523
73,73,3.5792462978167805,4.960410069964903,1,1,23.735558403892178
74,74,8.874896958310751,7.162212853258848,1,1,23.836282648351865
75,75,0.5189972412044852,5.444611184429383,1,1,12.508629122614707
76,76,4.364094984307879,4.809039859637787,1,1,10.743223797517144
77,77,4.023395678603721,2.5709476624244187,1,1,23.3990071104091
78,78,7.734311402485936,1.9191389640558831,1,1,19.79391963385886
79,79,4.035447707719381,7.69071260350011,1,1,22.891472840621397
80,80,4.723382508779722,9.036552684715343,1,1,18.77448619990713
81,81,9.382983604407155,7.916066697000176,1,1,21.45895853417322
82,82,4.097904511669253,1.427681140534599,1,1,10.098774700576127
83,83,4.422568691744562,6.539084767590312,1,1,20.671693254957923
84,84,0.7490509765861131,2.923146203921536,1,1,9.431734357119616
85,85,4.817070686814747,1.6384922266518254,1,1,11.128898647655877
86,86,9.51499117649632,4.460655301285103,1,1,22.208218870843545
87,87,5.108815524715378,6.923675692552745,1,1,22.644968118676395
88,88,0.7080940410970626,1.2597583397352574,1,1,13.552359022419004
89,89,4.976865507921274,2.3266968367443663,1,1,23.94011239731268
90,90,0.9813296312751463,4.734351362880048,1,1,12.855262455563782
91,91,4.293254066717975,8.245113735780953,1,1,18.532870518387202
92,92,2.647304880961366,1.1088512731695355,1,1,8.708870617059803
93,93,6.854659235731631,0.12966902158262683,1,1,13.222942290972052
94,94,8.170833249612134,0.0,1,N/A,15.152173433808393
95,95,6.320168880100278,9.345949548360027,1,1,21.144351927800823
96,96,2.6365086536108717,0.0,1,N/A,14.370640340063723
97,97,7.78965184777891,8.530040909958574,1,1,23.05874324269047
98,98,2.264038138446003,8.841700362177637,1,1,13.299986110298764
99,99,9.751748679285233,6.951819885947836,1,1,21.07016827126634
100,100,9.914680334650951,0.0,1,N/A,18.960386149431258
101,101,6.102403147862074,0.0,1,N/A,12.1650509785152
102,102,2.848313819123719,9.562198219122122,1,1,16.91138386688819
103,103,6.412237958272028,5.702838281909478,1,1,23.904581439622277
104,104,5.8717380861637425,0.0,1,N/A,11.107510873507836
105,105,9.761325911569777,4.211011300320652,1,1,17.812536670943658
106,106,3.1760927747370413,1.251291006453188,1,1,15.889425142276027
107,107,9.785969621801737,5.709031039590256,1,1,15.528002854351534
108,108,9.421021457888097,1.0041799953125452,1,1,22.052508489670494
109,109,0.8983290642119857,0.0,1,N/A,12.93459437583622
110,110,7.2368617180561365,4.261998401031817,1,1,18.297866093860584
111,111,0.22743573495984104,5.514449969512664,1,1,5.9322020116699505
112,112,4.723386355797792,6.049839881381174,1,1,14.07577012503967
113,113,7.658355837817231,9.99485041611842,1,1,22.914059406368587
114,114,2.477251585806849,9.861122043838805,1,1,22.672544221790552
115,115,7.48972627385076,2.5913031037780785,1,1,13.75921291731339
116,116,5.232317605543103,5.435820604984115,1,1,16.991885909640693
117,117,2.965420524300957,0.9318077021619542,1,1,7.367729108546124
118,118,7.267155220055073,0.9301659768626325,1,1,10.7572694338568
119,119,4.791097604160257,0.0,1,N/A,13.453794671725511
120,120,9.533621154164996,9.884902124749976,1,1,21.149118514833212
121,121,4.288460582402516,0.5748463230278444,1,1,17.521358760740313
122,122,9.466034585336448,0.0,1,N/A,19.16686226462261
123,123,2.5309011015209304,0.4147577818686832,1,1,6.83871530582557
124,124,0.7819110416556507,2.4642355040094346,1,1,19.76611398852206
125,125,6.738518325384034,8.877448549563491,1,1,16.446596556022115
126,126,2.952986963512064,9.621790155412807,1,1,21.338923317160518
127,127,6.491164249690494,4.766376721289939,1,1,12.544554223726918
128,128,5.025203671470653,2.650239108137452,1,1,11.049414388375704
129,129,6.120048355222125,4.3862747843990855,1,1,16.962762058318432
130,130,4.696272415244654,4.201838015379832,1,1,18.653954727441945
131,131,8.019352837486167,0.6048163487459779,1,1,12.46799246135142
132,132,5.635487624140556,1.0403793672207517,1,1,20.04416992171273
133,133,6.872537275624596,5.495516555381979,1,1,17.94177340673238
134,134,8.05270916567785,6.871982521735419,1,1,15.434257279566067
135,135,6.533225796648684,8.504329297766768,1,1,21.769288572499235
136,136,9.861415678209752,4.972933138056929,1,1,18.2577371013674
137,137,3.3070550166450143,7.519616192264489,1,1,11.48350301435551
138,138,0.31423266825894913,4.8335023004664475,1,1,21.328706009368055
139,139,3.551029669813006,0.0,1,N/A,19.398254456810093
140,140,1.2589174193241326,6.1875966704357035,1,1,20.868218539717255
141,141,1.5740837561942078,0.0,1,N/A,22.36852294905533
142,142,7.053270946299653,0.0,1,N/A,21.10617635345145
143,143,3.142901212747693,6.850970191779471,1,1,12.94674688189114
144,144,1.1065098327694711,2.1657447059175103,1,1,9.853879288350203
145,145,3.7701325895778615,9.255369193980902,1,1,14.965735725501268
146,146,9.11038703753575,3.5108193124795717,1,1,16.568201634288847
147,147,1.5882067696130975,2.2581143155462335,1,1,15.505505669430981
148,148,9.859028899890552,7.206767456212648,1,1,20.34379787558542
149,149,1.3391760046619439,4.345373981354044,1,1,22.06190202908485
150,150,1.5600286572687905,1.6036527742148465,1,1,19.131310656410214
151,151,8.69056166893469,2.345310194300867,1,1,12.878854687105937
152,152,4.6248723815267665,5.834052330211152,1,1,22.50021564912483
153,153,4.163059685655485,4.531732866793813,1,1,22.852637766639788
154,154,3.9942780987086124,5.757202839630413,1,1,16.750525142771888
155,155,6.336760967676551,8.258510147493503,1,1,19.167921172047294
156,156,2.7447731685374177,0.0,1,N/A,5.428287270347525
157,157,2.0045689263024755,8.20605052143665,1,1,22.892930208130327
158,158,8.975689251310106,0.0,1,N/A,20.424130643340746
159,159,2.424680372989579,3.850521015308055,1,1,21.92226855446233
160,160,5.405352618706674,0.0,1,N/A,8.47971089511622
161,161,5.765148454692125,8.076914417162174,1,1,23.019203801578335
162,162,4.085973133139312,0.0,1,N/A,22.246736044254554
163,163,8.849536200655555,3.2699006522373733,1,1,19.15491411266681
164,164,0.8366999116529961,1.850237528945613,1,1,15.761600732155175
165,165,3.5812787683418446,3.063775356845455,1,1,17.48985259590469
166,166,4.900588370715569,7.521597302173648,1,1,22.712449249678357
167,167,7.967927726548841,9.712324995694738,1,1,20.70629602509045
168,168,6.105589314456114,1.412930382256058,1,1,18.62538069900946
169,169,1.9690647717861753,1.8899062873181538,1,1,9.251649647944472
170,170,7.026604193677378,9.446319492675789,1,1,18.793695306642412
171,171,4.602054339828364,9.806133983685587,1,1,22.475811465929738
172,172,4.419788435425458,2.3642920921824984,1,1,13.070595453771855
173,173,7.249754215446966,0.0,1,N/A,23.075456719262537
174,174,8.758021979634394,7.408336533857387,1,1,19.160329471913787
175,175,3.49871438173587,0.26850252742295355,1,1,9.645033604202142
176,176,5.12914235214641,7.6882557876208875,1,1,20.692362825146382
177,177,1.7677404007475295,5.095315412689385,1,1,21.598894481700334
178,178,8.84261606584247,4.817150652705687,1,1,20.401537957732486
179,179,0.6814040164432389,0.0,1,N/A,12.210994189254428
180,180,5.140154225892681,0.0,1,N/A,6.610175900296257
181,181,6.652651690260695,1.6606567458089094,1,1,21.160625378233412
182,182,1.9186199783474511,4.879983747076091,1,1,7.787527553912952
183,183,1.982322449174686,1.372611265924224,1,1,22.00387266805582
184,184,1.9521046324289182,2.6747410682034034,1,1,16.304942232597725
185,185,2.9485434071926244,4.6029397431063845,1,1,9.660913782743407
186,186,3.438655602736278,3.228617692418354,1,1,7.662734564824598
187,187,8.669165095866024,8.485776333662528,1,1,20.610038117725757
188,188,4.769321625046642,4.425133944284689,1,1,15.959424957897605
189,189,1.0003610517413686,0.0,1,N/A,13.271760332135894
190,190,8.332759787360407,0.10672580645049945,1,1,13.343734361952672
191,191,2.201961856954137,3.326133586212414,1,1,18.69236057954438
192,192,4.038496497625995,6.248292937241754,1,1,20.434669312300862
193,193,4.939836692495732,0.5131321613303874,1,1,16.553955326152156
194,194,4.004925617027119,2.425301057629814,1,1,23.61496386781155
195,195,5.947116956548615,0.46066502542388976,1,1,17.10596888860914
196,196,1.1053706882408965,5.086743044179871,1,1,23.698723655464
197,197,3.744501602281163,1.5452228696442627,1,1,8.712651955597845
198,198,0.34626895737681296,0.0,1,N/A,16.449552377854474
199,199,5.746088688629371,5.699467565295327,1,1,18.841853088887106
200,200,5.3602605278303574,1.8778444199362065,1,1,18.878070408686355
201,201,4.243332918019396,1.6174191736154564,1,1,9.918675829433957
202,202,6.938127468410831,1.7735092244965545,1,1,23.640530951238553
203,203,5.290723865178247,9.992637726329775,1,1,19.00337158355638
204,204,4.621494663489894,9.848350288247726,1,1,21.49685253833142
205,205,3.670827659322211,8.423527788632168,1,1,20.4279365243521
206,206,7.944865775962127,7.724253000060663,1,1,23.738978151997053
207,207,0.683194757000809,7.716663773231484,1,1,20.439371061866556
208,208,7.015179051671385,2.059814578862771,1,1,13.024924800433368
209,209,7.920839625716485,8.934055476883868,1,1,23.737170097959634
210,210,1.5428834817381543,0.768686986918673,1,1,23.06797201608319
211,211,7.275393212259647,0.624943350076721,1,1,22.26578560859506
212,212,7.2936451261505395,0.0,1,N/A,19.10810233708458
213,213,0.8644838824725498,5.867139384706114,1,1,13.1759057988161
214,214,0.629082727407223,0.0,1,N/A,21.56127634066345
215,215,0.39541897217839184,0.0,1,N/A,19.90699394811645
216,216,0.45401899824611514,0.0,1,N/A,15.18311537599202
217,217,3.5918033384969728,0.0,1,N/A,15.489841880814009
218,218,8.337039635732712,0.3045473962444567,1,1,22.300832447470267
219,219,3.1645250561475824,3.9949948791783365,1,1,9.36129207593565
220,220,2.423477630351578,0.0,1,N/A,11.324476055741258
221,221,1.261825299314454,0.0,1,N/A,11.897018907775106
222,222,1.2197777524978048,9.884570250757807,1,1,14.36793385875276
223,223,7.571295316984234,3.069082885375357,1,1,11.622955529960437
224,224,5.816430796689075,8.96986585103148,1,1,14.899380524550862
225,225,0.6155579913133369,3.7722744135714583,1,1,6.9830476595818105
226,226,6.484893670003152,5.176132372494084,1,1,14.614591997517412
227,227,3.24456452121248,0.7573407968022483,1,1,18.187625900350056
228,228,3.5181952939705354,5.178390116566996,1,1,9.135005191760108
229,229,4.55718568883345,3.8993439525714626,1,1,15.53552060494511
230,230,7.242648599869778,0.0,1,N/A,21.49051629224921
231,231,7.366862249210234,2.110311455937277,1,1,19.43114555087388
232,232,5.724374942787648,5.116274010280869,1,1,21.40741020550768
233,233,9.58171983803499,8.109728307592455,1,1,22.88699846203185
234,234,6.753231677195827,2.827621917200495,1,1,13.043096337177408
235,235,2.9121016198762995,3.838460789995397,1,1,11.870357372431819
236,236,8.84910748349564,2.32143889360225,1,1,22.88958390101709
237,237,1.823955860800468,0.8794363227029844,1,1,23.699027397878243
238,238,9.438008913925692,0.0,1,N/A,23.32341049313448
239,239,3.4991556589682182,0.12967606368111007,1,1,17.616510259936682
240,240,2.8271060227214218,3.7842013520866837,1,1,11.525162286820631
241,241,3.453966411183088,4.5792661994230635,1,1,15.74305576655663
242,242,8.965653142748394,7.127175742128173,1,1,21.36591635471837
243,243,1.291749624834424,9.190198564624122,1,1,13.614719288470486
244,244,5.487497749864229,1.210792003319281,1,1,20.77323854147845
245,245,5.34041273211032,6.72764272732402,1,1,15.299035162438894
246,246,0.6500695817427915,2.0303099184664197,1,1,23.886670955427654
247,247,1.7037758976628736,0.0,1,N/A,20.86118197143214
248,248,1.1367642572920356,8.707949511256219,1,1,13.659753070089435
249,249,7.027403552503104,5.6977763650728,1,1,20.287549796491426
250,250,2.5374927190975614,0.0,1,N/A,21.383802975269816
251,251,7.246563372445519,5.204644563292426,1,1,22.386189095116585
252,252,0.7989771947751967,1.0224892914398442,1,1,18.94268925989533
253,253,0.8775656334010395,0.0,1,N/A,8.726012903044309
254,254,5.370418335154758,7.294466249516493,1,1,23.225773471467043
255,255,5.6277417312011835,0.28497853232096526,1,1,10.80246122585826
256,256,4.780585346493805,9.215741796533116,1,1,16.584366692177603
257,257,5.214330797519381,2.7675773460040833,1,1,21.734723325318246
258,258,2.5691651548503005,5.544109054741924,1,1,21.592292786454564
259,259,5.301374990619259,0.6566165916501043,1,1,7.934423998415179
260,260,4.2894040690741235,5.823838700151506,1,1,14.492531173027547
261,261,2.305288883113812,0.39011686070370644,1,1,14.922474075237483
262,262,3.8933816873852822,1.311577586093644,1,1,11.929651192178895
263,263,7.4866866221126385,3.8650847436477367,1,1,12.002123171762477
264,264,9.777037001249147,8.193292833579811,1,1,18.149409662250417
265,265,6.323029161326966,8.30595564929244,1,1,22.51833811835065
266,266,8.008343208832262,3.9132592016652943,1,1,12.15421158055867
267,267,0.776328388511166,5.639293927813707,1,1,17.758735606039572
268,268,2.9408379396854087,0.40307114717515025,1,1,15.33507358657145
269,269,6.06687423064201,2.698428676646646,1,1,12.643728031592861
270,270,4.01022939098023,1.75111878172716,1,1,16.420787712511174
271,271,2.2432575768648366,5.90261707693158,1,1,11.250534361830326
272,272,9.331285644024483,0.0,1,N/A,13.392300154335445
273,273,7.532471340026376,8.070205415383287,1,1,19.536918021747137
274,274,5.708432686842726,0.8535542902951709,1,1,22.05347944731141
275,275,7.504437222848973,1.6531400535094198,1,1,19.15193085748818
276,276,2.3458325888359877,5.622084161425293,1,1,14.392577204815113
277,277,4.105832636548986,4.128686105805189,1,1,15.138553113128019
278,278,9.518265968697868,0.0,1,N/A,16.576206942656164
279,279,3.546478592157932,0.0,1,N/A,16.387270863879518
280,280,7.5139354897179755,5.69206337713169,1,1,17.33041608658643
281,281,2.37295983380422,1.5237788313344314,1,1,16.39720853693543
282,282,0.8312749522455376,0.0,1,N/A,7.284215099162874
283,283,4.923626975487036,3.708592939715337,1,1,16.642261119942034
284,284,0.6587688115182522,0.4249648754091184,1,1,9.488950009767159
285,285,4.158152768220058,0.0,1,N/A,14.49273889794176
286,286,1.1765936722544879,6.1469869213249515,1,1,11.474675447426684
287,287,6.381147576031236,1.540156515383655,1,1,19.11216265718854
288,288,3.582880119030174,0.0,1,N/A,18.182026595956877
289,289,9.379029347285464,9.067066401729951,1,1,21.964842462271864
290,290,7.594745189854145,8.96430310513717,1,1,21.816693769820695
291,291,9.92051436182114,1.2572209700158243,1,1,12.025529179570885
292,292,2.7769603779017595,3.63913296852989,1,1,12.8774490317142
293,293,8.283751868939275,7.907368140782767,1,1,23.64952449399148
294,294,9.332493341037047,5.632442902954277,1,1,17.030968059766067
295,295,5.262088383145425,5.191015534806,1,1,17.754090374017462
296,296,4.212659513779375,2.096930416831321,1,1,7.451653490112311
297,297,8.131952506322484,9.22794589323537,1,1,23.892171517815203
298,298,5.053300329795816,1.5388560214667835,1,1,9.86142839311965
299,299,2.0850249407386166,1.7901350145960049,1,1,5.522510294832777
300,300,7.081848190585118,0.0,1,N/A,21.90442904094575
301,301,3.472659176666686,0.6080132457784115,1,1,5.6914876151301215
302,302,5.959168734908172,4.221644613737842,1,1,17.491844393362705
303,303,9.723212828621957,4.542631497035715,1,1,17.946321805818652
304,304,0.8738433234117771,3.3913109949487863,1,1,13.747035219367696
305,305,4.3771875452107185,9.476392616782576,1,1,17.015736789638417
306,306,2.5042695386705427,5.965077695565794,1,1,15.894183877798005
307,307,1.6164512237042294,5.323683903631001,1,1,9.895462193676275
308,308,7.289013211388312,1.7453139606386725,1,1,21.66708055149402
