,Job ID,Stage-1 Processing Time,Stage-2 Processing Time,Stage-1 Machines,Stage-2 Machines,Due Time
1,1,8.731265884403724,4.619610521247211,1,1,16.538822519327326
2,2,1.8373773921060343,8.399318075868527,1,1,11.04141654912031
3,3,6.00884606734696,5.242676359418459,1,1,15.004075660796772
4,4,5.13737066480256,0.472696910033914,1,1,21.88866442003492
5,5,3.359433722603231,8.097779177499762,1,1,15.11104366741267
6,6,6.847689550447238,9.970345542612773,1,1,17.81049069500765
7,7,2.501893207365331,1.6262860135710555,1,1,14.1272159563107
8,8,5.268898219354963,0.0838871940161745,1,1,14.979614429879689
9,9,2.9288745978970656,9.518463429432767,1,1,14.320195066926166
10,10,1.9016663194447125,0.6489934049047874,1,1,3.200405908147547
11,11,8.229287919069627,5.962065667901855,1,1,17.87198201850305
12,12,5.956965574124115,5.444743702207554,1,1,17.33074383290078
13,13,9.811597964095366,7.221202359207727,1,1,20.247268127317284
14,14,2.5868948975822503,5.365240356767222,1,1,22.23357241977233
15,15,5.419378768603519,6.072008116648226,1,1,23.194467692508326
16,16,4.823483713288303,4.208456400798278,1,1,15.547135756868036
17,17,1.2402266287160746,7.377157983578355,1,1,19.59743987785113
18,18,4.506167615204665,3.5908512464293993,1,1,19.09320157449764
19,19,1.2943528116598935,8.576834116149488,1,1,13.801300885727134
20,20,8.824557785667816,5.912168482881212,1,1,21.900682567602832
21,21,4.1719380214554755,9.887547898013613,1,1,19.1103481349177
22,22,1.4613891844689875,6.788338496260598,1,1,19.063181285093517
23,23,4.571293831817522,9.347167977802288,1,1,20.19723885772771
24,24,6.26507715740177,5.017507600599876,1,1,23.23238640141633
25,25,7.986957564677671,3.388632406153591,1,1,12.24492352625531
26,26,7.008739251027793,0.0,1,N/A,20.309962384203047
27,27,0.992728605703973,9.365351210893472,1,1,14.418069597260699
28,28,0.9488112154474959,3.4552465822118217,1,1,22.893248475078714
29,29,3.000733713579047,3.2165781141167704,1,1,16.002292134534656
30,30,4.096583471996196,3.4120743948852397,1,1,14.805312443395021
31,31,1.9244790429790792,4.727789034673767,1,1,7.694909076582203
32,32,4.586154931974526,0.8699355296368505,1,1,17.16320962154832
33,33,5.450674532378744,1.457252393590398,1,1,23.830229037339866
34,34,7.688191116878073,0.0,1,N/A,23.36395777893749
35,35,6.891742454571204,7.828528327211436,1,1,14.788995186666316
36,36,5.9017728547772395,1.8988811381235116,1,1,21.596803075231527
37,37,3.904475735399604,0.5209573139731938,1,1,13.641094363818643
38,38,0.18800342577510176,8.38537940203146,1,1,22.333803682070993
39,39,8.165248944370694,7.542096139363439,1,1,22.04912024421674
40,40,5.692081748953688,3.849550194141046,1,1,17.54220766203443
41,41,1.4789622789494095,6.312104841051936,1,1,10.625989176724106
42,42,6.855992187424519,9.768915503018702,1,1,23.183449808377844
43,43,0.5431331185788146,3.540506400405057,1,1,6.999144086653475
44,44,4.036867659175568,0.0,1,N/A,7.659581363432872
45,45,8.296517063744368,0.0,1,N/A,17.331182477511206
46,46,6.924663907251267,0.0,1,N/A,19.674785292321253
47,47,9.726194057652982,2.320026605972897,1,1,15.613816290609778
48,48,9.383378485840613,5.437435985085417,1,1,20.39328762581369
49,49,6.860423772963142,3.3438434970098396,1,1,13.842360192154796
50,50,0.5518686648279669,3.9869428772896898,1,1,17.027292498263805
51,51,6.671996804281177,8.60761292883174,1,1,18.980007281740733
52,52,0.6696712332693289,0.8913309931923874,1,1,19.096891175689123
53,53,5.789319278148303,3.9210419472097016,1,1,11.260362463072925
54,54,6.448085140257099,4.289720372279878,1,1,19.13979152117845
55,55,4.261661727429623,3.4581497285378724,1,1,22.624536764618348
56,56,0.5250422965072365,9.994286164940231,1,1,17.48624396708991
57,57,9.851560101700072,0.0,1,N/A,19.04751176731093
58,58,6.8243551840708205,0.2257186656333876,1,1,7.699740522027539
59,59,4.626103160022128,0.5773969351265396,1,1,6.547308871108828
60,60,0.371183161778017,4.655431676380469,1,1,5.352750367382448
61,61,2.110390123753465,7.996693270656193,1,1,21.431659689744986
62,62,8.318976203314083,5.676768838405472,1,1,23.77046362306867
63,63,4.939684222149882,3.4930994742075274,1,1,19.055959466088424
64,64,6.739714064307238,2.9268958621759857,1,1,21.5261104144778
65,65,9.438111900969211,8.336335057358431,1,1,22.513214527766603
66,66,7.975416735561401,4.947028612454162,1,1,13.84761930602152
67,67,3.060513903867238,5.981805452551722,1,1,11.523943517262436
68,68,7.113839450382694,0.0,1,N/A,12.181360282301043
69,69,6.213549039990545,0.6397257519613031,1,1,22.91134289763484
70,70,9.56684695591987,1.5687155711331746,1,1,17.671654523489828
71,71,9.10782947751724,7.978356657475087,1,1,23.225820105210502
72,72,5.649158070502947,2.8200919612794726,1,1,10.004069450520987
73,73,4.635677261298744,1.986596186916162,1,1,23.659523140101406
74,74,1.6967560593842301,1.7056668402486885,1,1,21.77521245039634
75,75,1.6789325997098092,0.0,1,N/A,19.296979031699237
76,76,0.5743402249174678,2.409660175001104,1,1,17.235921455865764
77,77,2.479217335885393,1.5180527867381532,1,1,13.11936250323269
78,78,7.897487858314573,0.6957629434823298,1,1,20.595231956697443
79,79,5.824082908652989,1.9689417907058981,1,1,10.48348498477825
80,80,1.3346867227326054,5.323388704207526,1,1,7.998665858654165
81,81,4.030507996509983,9.94467549477014,1,1,14.526928208954581
82,82,7.5876994062830905,1.6328326530269577,1,1,18.849869203087888
83,83,9.359559925604666,0.0,1,N/A,23.33244649869907
84,84,2.864856072593324,0.0,1,N/A,18.801302931227127
85,85,7.570371061160266,0.0,1,N/A,16.14244520729679
86,86,8.601626386072335,2.208165693122972,1,1,23.777405091146377
87,87,4.187888399277471,0.23055649665930988,1,1,19.29120606248381
88,88,9.671791342001471,0.0,1,N/A,18.80588729933293
89,89,0.4421490249345106,7.697557474430255,1,1,17.297447721288528
90,90,8.831324607149888,7.260618093686047,1,1,21.2690455477599
91,91,4.465474231826284,0.9574153701958787,1,1,12.582500319694184
92,92,6.0086588864002,2.020826824567581,1,1,12.963739825010002
93,93,5.365973413776556,5.840914939679214,1,1,14.014565634795451
94,94,0.8675482072432161,7.277447969030644,1,1,21.193355799487286
95,95,5.048470694509629,0.0,1,N/A,11.567704233161557
96,96,0.2473281865473298,2.1061039172452,1,1,3.910598499625418
97,97,6.445755535469962,0.0,1,N/A,16.01229431764495
98,98,0.008578577206886928,0.0,1,N/A,17.89627906869265
99,99,5.039166292644715,0.0,1,N/A,16.63911085965458
100,100,4.7723246860235955,4.016919451290159,1,1,12.819974444958131
101,101,7.185095401879225,4.848740019939028,1,1,18.83980075625454
102,102,5.491691470250575,7.17405382867756,1,1,16.429864051285385
103,103,8.034426742136189,5.948996468263706,1,1,18.584746227914493
104,104,7.078217740237982,2.835896181322938,1,1,14.03236444478199
105,105,6.27866737177359,1.4885682654581534,1,1,16.574353868806742
106,106,8.669770875303556,4.246813030305853,1,1,14.356539603302444
107,107,8.84202898890816,8.780581629888115,1,1,22.61100499149267
108,108,2.5052857070545818,0.13280952798291445,1,1,7.968551424758657
109,109,9.89216742848414,1.5617909708260225,1,1,14.486389405597762
110,110,8.423776974933068,5.04753030119777,1,1,14.634908675493552
111,111,3.43739005441246,6.856080684013204,1,1,19.717029473604484
112,112,5.442437151169033,0.0,1,N/A,20.64251286150103
113,113,0.8293216105307277,1.449688908657133,1,1,3.689279577270666
114,114,1.3843972872388555,4.279112355267916,1,1,11.448946437214184
115,115,0.830505147831474,0.0,1,N/A,21.14428347275328
116,116,3.685028916724055,7.509412499295261,1,1,20.10453872284593
117,117,3.8578443979297905,0.0,1,N/A,23.27426029640057
118,118,2.350703814378873,5.841638078913065,1,1,10.383646640432207
119,119,8.041166409993066,8.606086258451445,1,1,19.42409569179925
120,120,7.833869440804416,1.5629061955102652,1,1,12.92167836537082
121,121,1.3528297315187,7.6555745975404985,1,1,22.933248856069866
122,122,8.532993126157928,8.090137499157175,1,1,18.222963171615653
123,123,8.910749306266938,6.723555131520264,1,1,16.140888917695488
124,124,5.788109258456391,0.0,1,N/A,15.586184633902773
125,125,4.596617855173349,9.200795906475115,1,1,22.157997278886015
126,126,0.466718360323386,9.549446541228402,1,1,13.848640030654712
127,127,3.7108673960656233,3.540966634626458,1,1,10.21726217983902
128,128,3.7195948657606595,4.507771926924087,1,1,19.774808899262013
129,129,3.9888119787537435,6.31731718532519,1,1,15.32737571601994
130,130,7.4793053439328485,2.089158537604776,1,1,22.86843791316181
131,131,0.9851140568996863,0.6426442353240713,1,1,23.081537972301657
132,132,5.458464766662999,0.3656992148605931,1,1,18.829508456574345
133,133,9.154464652289011,6.779977564132359,1,1,18.606461635147774
134,134,2.490714484106312,3.869322299616794,1,1,10.672168322762978
135,135,4.7540147120042855,3.2252144928277504,1,1,22.229842672262947
136,136,9.312932908201937,3.327245876199265,1,1,19.02215757807381
137,137,3.405578454292141,6.0147442470132315,1,1,19.804120901775722
138,138,1.1122776822525715,8.264757515366469,1,1,19.43474884586133
139,139,6.201405758164271,3.685525417936135,1,1,18.655528023144555
140,140,1.1334671035568167,7.256449913314159,1,1,16.38041447610538
141,141,6.668114255977763,0.0,1,N/A,14.411483218873663
142,142,2.034178833556235,2.0047834265530273,1,1,7.264956399323706
143,143,8.368376094764425,7.895493308215,1,1,19.722577655248863
144,144,4.386139768139616,1.9413964776888104,1,1,18.33100468723474
145,145,7.364590546144216,5.902995638758426,1,1,13.608353010850566
146,146,2.389680040258696,8.782882734562332,1,1,15.013059522067206
147,147,9.185933702024457,1.4260612024575547,1,1,18.384224085468063
148,148,4.759335756883384,7.651006473076852,1,1,21.516323911717453
149,149,2.0368638133125936,0.0,1,N/A,16.117065211729386
150,150,9.29059211452604,0.0,1,N/A,16.77536432365403
151,151,0.02604145945757197,2.188415969815397,1,1,13.081620436501991
152,152,5.058104167452772,4.075427248032156,1,1,18.55288236066326
153,153,4.238304386745675,7.247504894691522,1,1,20.577712871869437
154,154,3.4803959171137566,2.3883770239040913,1,1,16.971794608800145
155,155,3.9958909250461003,0.7946317314448259,1,1,6.090555854395829
156,156,3.402081573639788,8.427789826966375,1,1,13.39055835279535
157,157,5.591921968502587,0.0,1,N/A,22.463716995939762
158,158,3.458256955051182,9.027755135137593,1,1,13.517367571194008
159,159,8.924059824420477,1.697358765385637,1,1,12.796088776610395
160,160,3.0010761401504373,9.733764253296775,1,1,17.87809530730179
161,161,7.458364730592257,6.629776228464998,1,1,14.252959074033782
162,162,0.5320247215995177,0.0,1,N/A,10.42792703771973
163,163,4.583958951478148,0.0,1,N/A,16.31014490616979
164,164,2.476326866496583,3.928546804071913,1,1,16.87080320168624
165,165,7.5146611297568295,4.020632772279045,1,1,19.17969079719173
166,166,4.330006745561996,8.377554478526827,1,1,15.774100394602907
167,167,3.7630814279048455,6.489850168109633,1,1,17.794085053997335
168,168,4.178438035537094,5.811285861049536,1,1,23.74646670588939
169,169,8.484033590817013,2.1715115774279115,1,1,23.945934619539017
170,170,3.5411300882127628,5.132979372447028,1,1,14.149378281346628
171,171,9.6942912981754,2.289439287468066,1,1,12.725820844310265
172,172,2.1036048068478586,7.6404802122848,1,1,22.0989127838452
173,173,5.727740153967512,0.0,1,N/A,15.48665434009655
174,174,2.793551869097114,5.446964051221363,1,1,23.990034512675596
175,175,4.1013738460108495,2.592718192546667,1,1,7.792468228268445
176,176,1.1097530085501606,6.804659169836775,1,1,14.350750194055681
177,177,2.973773683236548,6.397313492191775,1,1,11.136290028493155
178,178,1.3434861160422984,8.9133018348379,1,1,11.763533756328023
179,179,1.7741848757973477,0.6567062930427858,1,1,14.053393194677307
180,180,0.6678495513474714,7.649318098507089,1,1,16.3397583214618
181,181,4.155050811360318,7.374671110966555,1,1,22.35896583923509
182,182,9.356562642142194,4.121677140307792,1,1,17.840367867469062
183,183,6.389092341680329,6.732452877457213,1,1,20.42429671544918
184,184,9.138738680236854,0.10100096397203995,1,1,15.688942165364525
185,185,8.625097419535242,3.1518437602627603,1,1,23.662797045866167
186,186,4.277625292683396,0.0,1,N/A,20.936948639764005
187,187,2.7805776316130473,1.0669131365204854,1,1,20.186917444813727
188,188,2.0497351701554454,3.1553376385088026,1,1,15.855930492693108
189,189,1.8154831113607783,2.049593872581381,1,1,10.776736776038303
190,190,9.457017616214515,0.35479369647994474,1,1,17.291052246501863
191,191,2.609866972847561,8.592734387878915,1,1,12.978777062997645
192,192,3.8802378220155265,0.0,1,N/A,21.681732927220672
193,193,0.26086804739698044,6.419944135051217,1,1,6.850112699536992
194,194,1.664098701831871,4.619194013873923,1,1,8.178939458888552
195,195,2.8306130476174762,5.187844615060967,1,1,20.42478031880993
196,196,1.598877986080437,8.607115422707412,1,1,22.291984113296948
197,197,1.3730194636101989,2.3659597274030144,1,1,18.348238197098432
198,198,8.075838705454476,7.415852290947887,1,1,20.666738086159132
199,199,3.672646712661484,0.0,1,N/A,16.736207791738426
200,200,8.833424312962585,5.123701975827402,1,1,14.647752966940448
201,201,3.909227828558761,0.0,1,N/A,12.884426709707475
202,202,2.4023457099440315,4.276721405886638,1,1,23.6798161757097
203,203,7.864732049729838,0.0,1,N/A,21.820212061974182
204,204,8.489249802742018,2.810043273587236,1,1,22.782502764001208
205,205,4.0094702726626075,0.0,1,N/A,22.33455867282188
206,206,7.013158029138394,1.021075188898214,1,1,18.327592217137955
207,207,7.292537872172508,7.10119360699753,1,1,15.626822180418978
208,208,9.535187238970646,6.9423946507221785,1,1,22.99376002898582
209,209,5.834575054710081,7.916334210710905,1,1,14.517651418690836
210,210,5.630233367921504,0.0,1,N/A,15.846960682613338
211,211,4.713596189788454,6.498812527144283,1,1,14.20278382245369
212,212,9.385233023768047,9.346313184376204,1,1,19.436119151074045
213,213,5.853520753069677,4.016748377047206,1,1,21.824616593744476
214,214,3.6429115939504833,0.6793049342371016,1,1,10.1343531916749
215,215,0.24504505815476252,2.46626580760089,1,1,15.568502196597722
216,216,3.3088497295841925,0.0,1,N/A,16.455497930648416
217,217,5.438467511692686,9.773161439744818,1,1,18.50091219347045
218,218,2.057794957341664,1.2450698544376593,1,1,5.7011462915066815
219,219,7.093056985813318,3.276595872091115,1,1,15.311148679338595
220,220,3.7500935713141437,7.397469029959205,1,1,17.741903006789393
221,221,8.467702839746122,1.2941849445046172,1,1,15.000708562864975
222,222,2.938622567727205,5.13272463197906,1,1,14.583426840037077
223,223,0.9310337528913326,0.0,1,N/A,20.891114279982023
224,224,8.419301863258443,5.344079817786913,1,1,20.05710348885348
225,225,9.14745561592082,8.298501965163885,1,1,19.246703442895154
226,226,3.914831763295028,7.018072890521933,1,1,21.40581477801452
227,227,9.316671421966548,4.360906497696484,1,1,15.575598899117574
228,228,4.572884309161488,0.0,1,N/A,6.939037188568598
229,229,7.686910949992992,3.808281596147328,1,1,21.06636205118421
230,230,5.330006051834011,0.0,1,N/A,18.782229008549223
231,231,0.12435980532423008,0.0,1,N/A,17.93372337730571
232,232,8.480780154843604,2.2270245953379844,1,1,17.853421786902715
233,233,4.747606792467458,1.9478146079644332,1,1,16.38691858249424
234,234,6.409534072121776,5.436628456635138,1,1,18.053303781219036
235,235,4.120350654846,7.571707434645391,1,1,13.692681004324312
236,236,4.985684407639546,6.848802435226457,1,1,15.947834610430755
237,237,5.956110086938922,7.025354496251365,1,1,17.928682739939994
238,238,7.022084109887986,9.974924807192805,1,1,20.141067766766156
239,239,5.111550008160217,1.878396419460956,1,1,20.12385214961621
240,240,7.875768156739509,5.615029275814283,1,1,23.392253944646612
241,241,4.020769937548757,9.558244639674143,1,1,15.650260652502523
242,242,5.448173434304479,4.811839236527779,1,1,22.310904273117607
243,243,5.455502396976003,1.2279481812655524,1,1,19.897978213369157
244,244,2.50025151931799,7.612923838647364,1,1,23.25216054583335
245,245,2.2186973567486765,2.772942155271977,1,1,13.467994717933042
246,246,0.6634465953106805,0.0,1,N/A,10.556179012230789
247,247,4.671031216968094,1.1454066416702535,1,1,7.371286585666453
248,248,2.3230187398419067,0.7282386126545892,1,1,10.116420604210258
249,249,6.755082906785173,9.626203203882099,1,1,19.404679167269634
250,250,5.8130087395672545,0.0,1,N/A,15.6658991790497
251,251,9.429358687672739,2.1721813922122726,1,1,20.94372241011154
252,252,9.543386579438376,0.9201198187856818,1,1,13.297983479891782
253,253,4.006807264951836,1.0905602171988171,1,1,15.918617732117369
254,254,7.836397533831162,7.651108615351474,1,1,17.754607173885365
255,255,0.39088706927928984,0.3938457727903921,1,1,12.735158201293713
256,256,9.997456439135515,9.059118071705711,1,1,23.209664214210918
257,257,8.490299870840103,8.147650145061775,1,1,21.721250284747754
258,258,0.420782630617198,8.718318838950404,1,1,16.98816589660209
259,259,6.524454221530225,1.6558184487161176,1,1,8.464385623972552
260,260,0.9164119945870686,1.7023300575734301,1,1,6.0708871898908034
261,261,2.0810338427378694,1.1758211378165895,1,1,3.941828947619051
262,262,0.5215920349918424,9.208610229385494,1,1,13.800902240137727
263,263,4.253361575445728,0.0,1,N/A,23.014514633255352
264,264,4.74842670249084,5.253960974196291,1,1,18.887319130189027
265,265,4.6565605703936725,0.0,1,N/A,17.073578548618904
266,266,3.1392121387153225,8.67439224180552,1,1,16.47923400859334
267,267,7.980757699978483,0.0,1,N/A,21.57136585910627
268,268,7.625822052160417,5.717307101346547,1,1,14.63086611501547
269,269,0.20477118441911468,8.74962729306152,1,1,18.68722275274675
270,270,4.1001721594295395,9.388677390708528,1,1,13.95780821875456
271,271,7.768036386187658,1.622111371064856,1,1,23.132788237396124
272,272,0.5598713094682461,0.0,1,N/A,2.2064387908049667
273,273,2.2307739758657776,8.822110803699575,1,1,23.959465826572632
274,274,2.5200461845528954,9.4713214569081,1,1,18.39383095515881
275,275,9.526274761568384,1.6778173077690761,1,1,16.644222199845295
276,276,9.672087414184952,1.9913596192318361,1,1,14.140407209288576
277,277,7.268809957067339,4.497733273846939,1,1,14.786677115519788
278,278,5.333039512363163,0.0,1,N/A,19.930732974437714
279,279,8.856968976545765,4.526961308499333,1,1,21.30429623989108
280,280,9.683141064919425,3.6713389757973736,1,1,18.277862586439007
281,281,7.1788480219661395,0.4606084985061587,1,1,18.9061569801718
282,282,2.915008017765227,3.2476081871704965,1,1,14.662006721884598
283,283,5.029439156788321,0.0,1,N/A,23.5942229645567
284,284,0.15253844674586237,9.754853172675466,1,1,14.727740478484748
285,285,9.784976013791582,1.0968812580936638,1,1,17.20975573116825
286,286,2.4997744257437935,6.243448692382695,1,1,17.764219689137484
287,287,1.383270098588829,5.529330246656487,1,1,13.037731607943405
288,288,8.372756140517177,0.0,1,N/A,18.752830757888553
289,289,4.186309980425192,5.992792595849762,1,1,10.929023524232159
290,290,7.6802824251448785,0.0,1,N/A,17.614473296609553
291,291,8.558255993160236,0.0,1,N/A,22.049344675863217
292,292,8.723926031651283,9.514897941177274,1,1,20.018842014781672
293,293,2.967447519658113,1.445631213853097,1,1,22.660414388229942
294,294,6.681988692340401,9.24757617181457,1,1,19.373835092017544
295,295,2.9740513742557884,0.0,1,N/A,16.83894956354269
296,296,6.829720112502934,9.324348805501293,1,1,22.42121710516369
297,297,4.925673701845305,8.088984015433805,1,1,14.2316285016605
298,298,6.736532663155568,9.3988035921548,1,1,16.664678487829978
299,299,7.276952960811414,0.4661403646293649,1,1,11.58855284503894
300,300,6.997001764420636,7.284939183210505,1,1,14.987446708854135
301,301,6.988006512078055,6.570371876749156,1,1,20.116778576125782
302,302,0.8086929513225982,3.291614097852186,1,1,13.267718760394779
303,303,5.037265460757453,0.0,1,N/A,21.43010487604405
304,304,1.9061202387933474,9.129299755083895,1,1,11.408072417863183
305,305,6.881508474779041,2.0798445412682707,1,1,21.85451901016768
306,306,5.0335866128136,0.0,1,N/A,17.906877709809514
307,307,6.766730946007181,6.0702903023499,1,1,21.053960180817604
308,308,1.979661347069488,8.021998921411308,1,1,10.937377680752567
309,309,6.288067341433681,3.072519048201363,1,1,18.648246042450474
