,Job ID,Stage-1 Processing Time,Stage-2 Processing Time,Stage-1 Machines,Stage-2 Machines,Due Time
1,1,2.948088188536473,0.0,1,N/A,17.020894510016706
2,2,5.563501138648672,8.140726365009124,1,1,15.56169099255504
3,3,8.676416001894541,6.416477078069418,1,1,23.761662193799367
4,4,8.563567254723738,5.7362621176428465,1,1,21.182300033438292
5,5,1.0825886160835252,5.202404093195745,1,1,20.58346575243773
6,6,8.879721434339926,0.0,1,N/A,23.38220568892013
7,7,2.230415260548473,5.008907481361287,1,1,15.10743324256617
8,8,3.6146887052332675,3.874143575112151,1,1,15.737908715513779
9,9,4.554251592957975,4.2802064939668005,1,1,11.097973140607817
10,10,9.680874740470113,4.869881583237162,1,1,17.03501495160038
11,11,1.3136653856194835,4.691792733695461,1,1,15.50787804124704
12,12,1.404630643234256,1.9854413910682955,1,1,21.53152555652254
13,13,2.3934403532280966,2.140512198558234,1,1,4.696005079238015
14,14,8.495513663405527,4.2653566194594115,1,1,18.40239484066305
15,15,4.50459046480379,6.8490911238589245,1,1,19.238053127137036
16,16,2.122564245571664,9.296929000178398,1,1,12.144052035095415
17,17,0.023665508723742512,5.39571118924521,1,1,15.975928395887525
18,18,2.244765477931013,0.0,1,N/A,17.560450875820877
19,19,9.99941246140679,5.813279195391907,1,1,20.431628152745148
20,20,9.748232270934787,3.248934521193484,1,1,15.952777469971059
21,21,0.7132367104475834,9.62354544670161,1,1,10.59074500205402
22,22,4.295684315862873,4.784129259229348,1,1,9.54985012082568
23,23,8.750716691703627,3.027970562814226,1,1,15.014060775734198
24,24,0.14333037371981439,8.854142184437109,1,1,10.352644533454114
25,25,1.5697919265901705,6.938686578688571,1,1,20.87314200764836
26,26,6.41937148739331,2.2433885764092,1,1,18.632847428037294
27,27,0.896593406659405,0.0,1,N/A,7.729935533636077
28,28,3.113160494972788,3.0227777935422564,1,1,8.42870256378207
29,29,7.990329789634004,0.0,1,N/A,11.187002797008898
30,30,7.245145476734594,9.460480698565075,1,1,17.751519179293673
31,31,0.8417422741108538,3.3582592252634855,1,1,23.39942985830939
32,32,0.48911153444696986,0.0,1,N/A,12.627916503184533
33,33,3.6251024071124305,8.926918255898926,1,1,16.43183205912025
34,34,9.890518626813689,0.0,1,N/A,22.224424745372616
35,35,6.194772328413832,9.420074890858253,1,1,19.839852260963276
36,36,4.258323509143783,0.0,1,N/A,19.78153753083305
37,37,9.615778750448204,4.967453463618431,1,1,20.783975272265003
38,38,2.404199247035307,1.3633349338088852,1,1,5.240630198101821
39,39,8.386272684276248,7.067126910122101,1,1,23.85585387686946
40,40,8.944581086168874,4.567619020216814,1,1,23.15253480776807
41,41,5.177572133671299,0.0,1,N/A,6.983219265037984
42,42,2.274467769979951,9.034922774665077,1,1,12.043522107566163
43,43,0.8839134652973579,9.532238843001624,1,1,12.68921463380262
44,44,6.377709248995275,7.75655086694098,1,1,16.990310547166988
45,45,6.560895247855683,4.136801553436779,1,1,21.941657393492296
46,46,9.524975828406061,2.5076199439973212,1,1,19.99844336256562
47,47,7.991930698561726,0.0,1,N/A,15.159545022928256
48,48,4.191976533816593,0.0,1,N/A,10.914915217384138
49,49,6.806819904389842,0.0,1,N/A,20.249203665856086
50,50,9.372857364335838,0.0,1,N/A,22.626717945047695
51,51,0.43421704470313016,7.955068531346275,1,1,17.93799976253616
52,52,9.983599584412785,6.721325294055464,1,1,18.711280697732864
53,53,1.1671877652134466,3.9838850594210773,1,1,16.21708811003452
54,54,1.985935163336744,0.0,1,N/A,22.429137164310582
55,55,6.282213130186634,0.22488789428352973,1,1,15.809979432675334
56,56,3.1886478898409223,9.639074100528038,1,1,16.180441965010637
57,57,1.2419100671948746,4.629715660513332,1,1,12.010897977006938
58,58,1.8782146261927313,5.9631881709576495,1,1,19.217957622171653
59,59,4.826626596441268,3.586982448468482,1,1,9.713308115430856
60,60,7.881937238057892,5.228151063138546,1,1,23.09839527169251
61,61,6.586704338115036,2.7767995096585754,1,1,11.26545197044922
62,62,7.179511267594353,5.067898259921725,1,1,23.31774949772028
63,63,5.648123496115517,9.429512788439997,1,1,16.80560202711984
64,64,2.8794936071440325,7.219271244061058,1,1,19.969630844686037
65,65,7.076977960649366,7.377139197931307,1,1,19.842949038236597
66,66,7.338614161044827,5.229814732968632,1,1,16.116803507485173
67,67,1.768615938935466,0.1333050237143718,1,1,17.25246759250455
68,68,0.5265767915926778,6.941143791735515,1,1,9.03430138961998
69,69,0.4316315579267427,9.845362363117875,1,1,22.588822287883744
70,70,8.639134661924325,0.08569330950644716,1,1,16.424127219674943
71,71,4.663885759457211,6.467650084281775,1,1,17.133329607735284
72,72,8.915090033234813,8.03112273298172,1,1,17.463552657101225
73,73,8.86591670937172,1.3140887717612615,1,1,11.18511953367582
74,74,4.394295532923895,6.896227889703917,1,1,15.80864147836093
75,75,0.6088229232120013,0.0,1,N/A,20.486692415923002
76,76,4.257103353903691,0.9520042051676647,1,1,17.356274658238384
77,77,1.0775330084671275,7.31719135190999,1,1,16.035124165925723
78,78,8.672929153815922,2.860681427998654,1,1,18.86413674846258
79,79,3.210486035170258,4.559169709752893,1,1,17.471222054248376
80,80,3.037503701160796,7.962654746085745,1,1,23.372014790671425
81,81,2.6490252218183876,6.218907626378844,1,1,17.663305314830097
82,82,6.222273228474917,3.222437551074957,1,1,16.573644380237468
83,83,1.4607868839483773,7.8336074312610515,1,1,18.135267754836587
84,84,1.2366542658182644,2.0592568353919716,1,1,3.7279739040188398
85,85,6.208531679691914,0.0,1,N/A,23.266822093103265
86,86,1.9050546932298562,1.9080803934869506,1,1,8.877990151726678
87,87,7.533283480402776,9.831867030811818,1,1,18.19192163355748
88,88,5.435533211871365,0.5839387297446774,1,1,13.461557864196852
89,89,4.642789078677043,0.4076262772364547,1,1,11.499385735483845
90,90,7.652035881881318,1.070066399855415,1,1,20.628070020307895
91,91,4.5253114876090255,6.939866914630199,1,1,13.61314553857963
92,92,6.741448737645866,0.5084094553561969,1,1,8.871385140075464
93,93,5.353728594441323,4.335654563272824,1,1,12.69210011428394
94,94,3.942059346470862,4.167144078322426,1,1,12.173218914750528
95,95,3.307914173196137,6.834963906520949,1,1,16.980487088646363
96,96,1.7154503722164705,9.664349779061292,1,1,17.262082386604973
97,97,1.3086241811251187,0.0,1,N/A,21.18352669364127
98,98,9.564206557497535,0.0,1,N/A,16.133980977145207
99,99,1.403928376603376,0.0,1,N/A,19.642862411969787
100,100,3.9092655878701246,0.8673961679070274,1,1,6.966359114749927
101,101,9.80797460155823,7.961501130828487,1,1,21.165183368109837
102,102,4.796011150485921,2.7212663291185155,1,1,15.549622722172199
103,103,0.5296101556500643,4.7184999030596995,1,1,21.517000987427426
104,104,1.4296454646361767,2.0559802268355343,1,1,20.875583246629795
105,105,3.0249738762639122,7.896355826440493,1,1,21.65297616041665
106,106,6.379075421722069,0.5597928508977967,1,1,10.032599509188202
107,107,2.0284722050589066,0.28385244685792954,1,1,15.880986577777328
108,108,2.620530989460227,9.784234896717983,1,1,15.173849866713061
109,109,9.146948221752506,0.011672270838368748,1,1,18.541023907821806
110,110,1.5015895236558108,1.7196507848353504,1,1,17.294981096630146
111,111,4.51490610234842,2.8217674870689304,1,1,13.579807700627859
112,112,2.3443570925489556,0.0,1,N/A,22.352151793617807
113,113,2.91286691020342,4.370855012659604,1,1,12.353999251862097
114,114,6.763162256173308,8.629981338168989,1,1,15.575407930927966
115,115,7.022489214955204,0.0,1,N/A,22.40950716148714
116,116,6.255086285728297,2.5427344370068483,1,1,18.04413982574158
117,117,0.21143393907605335,6.890093979989112,1,1,23.50541717631204
118,118,8.6311642596675,0.6132303758680058,1,1,20.345166429370423
119,119,0.24804561941935144,3.0835455334968587,1,1,12.702336045961285
120,120,6.120368829674904,4.610692259483954,1,1,13.054545675144404
121,121,8.433278608119185,2.628024933213938,1,1,17.854549453189737
122,122,5.414184230329909,7.508707567813531,1,1,17.639808025951645
123,123,7.1618913215911375,7.452439837643827,1,1,22.371085016035366
124,124,2.8267260020170957,8.490854097164043,1,1,22.266583681130857
125,125,5.346385207855482,0.9046099777189365,1,1,16.393812430713325
126,126,6.364414466470572,8.955717749898891,1,1,20.382671692277018
127,127,5.242303607459032,6.526896670614804,1,1,23.197392426322224
128,128,4.670136369058277,3.6813948332536395,1,1,23.443462259311612
129,129,2.7884101224463875,9.696663739995993,1,1,18.08604112909313
130,130,2.5097444092774635,6.3664364166285345,1,1,22.007263244932194
131,131,5.858499305294872,7.963969897333115,1,1,22.23184125802078
132,132,5.69911077978153,7.1180639493085796,1,1,15.449068493321153
133,133,0.8953571573576646,8.484140834107869,1,1,12.98746525266851
134,134,1.1274833934130635,9.223647283361128,1,1,21.683700865968312
135,135,7.711186376209234,3.4641434042495867,1,1,22.95553056608317
136,136,0.6351179445468358,0.6369874761345229,1,1,9.68851220975608
137,137,9.409660977170777,4.711750655490663,1,1,23.966094776255424
138,138,3.358642618289902,1.7342492677165289,1,1,8.469846356714248
139,139,6.702259005593642,2.423298846767783,1,1,17.379527602061533
140,140,4.22750749852216,0.0,1,N/A,16.048136873943417
141,141,7.668740800902515,0.0,1,N/A,23.16905396566179
142,142,1.1655919410238025,5.535421066549291,1,1,11.545166521233337
143,143,9.013683032083154,3.615339522461073,1,1,19.522849953802844
144,144,9.317337238650072,7.378741530443863,1,1,23.31685170590485
145,145,8.296695371710282,8.473664364108863,1,1,22.33614956363956
146,146,5.259532138419582,2.774884987293907,1,1,17.289873836027446
147,147,2.2534415617592796,5.922147426151845,1,1,12.560516191440984
148,148,7.858470434525154,0.0,1,N/A,16.884131206840713
149,149,8.358224301718122,2.216142704945412,1,1,19.80018377387389
150,150,0.7846989097233092,6.892931203796796,1,1,22.875095307532302
151,151,2.5389821656724862,0.6455859411277187,1,1,21.623058807719957
152,152,4.397399068301647,1.2047176703163631,1,1,18.47729718946446
153,153,6.38063131710326,0.0,1,N/A,20.6942759685013
154,154,4.9431294033690145,6.237167018263379,1,1,14.702034063249625
155,155,7.6380616187969395,0.0,1,N/A,9.465247095624937
156,156,0.2997790875098083,0.854446562536767,1,1,12.747330539241359
157,157,5.801485135228761,6.64677597046198,1,1,20.927304369962513
158,158,1.5217929894354465,0.0,1,N/A,12.536739396349414
159,159,0.2541394682022591,6.359587018566126,1,1,13.350683099294107
160,160,5.211689112365397,1.924136290390589,1,1,11.945895648670323
161,161,7.278162728085256,0.43446745007485355,1,1,7.851667430954592
162,162,6.478124515995257,0.0,1,N/A,23.705947425659737
163,163,4.284391821742343,2.24249964071939,1,1,12.588282104896791
164,164,0.7507890849079313,3.4903687781497164,1,1,15.453122979955916
165,165,2.4236916673239906,8.94232219161527,1,1,13.178622680188441
166,166,5.197308221930602,1.2855935911380711,1,1,13.295329451514952
167,167,0.28661005096410785,5.4451470263875486,1,1,20.334699592919677
168,168,9.406349057419295,1.6711242771293378,1,1,17.403004358178926
169,169,4.617699983831958,3.5402381033160992,1,1,22.511094443406012
170,170,3.521958127443856,0.0,1,N/A,13.626324338948876
171,171,4.754979773939352,0.8649695333625795,1,1,23.33014378384493
172,172,1.649182908676986,0.5203607070061655,1,1,11.81183023425127
173,173,5.477765727134307,3.839400447642257,1,1,16.924190494555575
174,174,2.1986203044965604,4.200029553272458,1,1,7.8120320186596315
175,175,1.1122874273755423,0.0,1,N/A,19.69387288951264
176,176,1.8118162324130815,0.0,1,N/A,16.013658010996664
177,177,3.9189948328060153,8.015814364545056,1,1,17.43888571906174
178,178,6.831303657789425,4.030622194481195,1,1,14.151496938478779
179,179,0.06375378109091723,2.14859197675743,1,1,17.430381714795278
180,180,5.772024174452418,3.5704795388273283,1,1,21.025970485589006
181,181,0.43518084197368134,7.193118161694202,1,1,18.560708573557655
182,182,0.4360420987179314,0.0,1,N/A,6.323745053140129
183,183,0.7094515431764181,0.0,1,N/A,21.138131885700464
184,184,9.673914989056268,0.0,1,N/A,23.622744658685257
185,185,4.132522613170915,6.043829898871119,1,1,21.59055041512801
186,186,6.780815824769533,7.8218256245659195,1,1,19.545253656519385
187,187,6.624443221539774,0.0,1,N/A,17.6065469836469
188,188,2.564207311907125,0.2803789171676585,1,1,5.041699242848983
189,189,9.43575022719892,6.252587388175281,1,1,20.680441481704342
190,190,2.7529039893325438,0.0,1,N/A,20.347926203841972
191,191,0.46135761055127955,9.263859503745824,1,1,20.816471551117345
192,192,4.630127040340504,5.849059312082377,1,1,13.434153304906367
193,193,5.731912733218529,0.0,1,N/A,18.84455986925642
194,194,3.3034902574831726,3.965123524478483,1,1,20.08024767719046
195,195,4.842715920232611,5.304730170387026,1,1,20.67507272542989
196,196,8.587867661039608,4.855507756091232,1,1,23.709265969670646
197,197,6.198028639691426,0.2334178153885791,1,1,6.799809395130664
198,198,5.41815353739242,3.507527902222982,1,1,23.7658418321447
199,199,9.584901239623916,1.4982928881637525,1,1,16.786951512267056
200,200,9.39680221408221,3.5929420736890405,1,1,13.066216830093756
201,201,9.275879428459428,6.531927795023726,1,1,16.48238213330327
202,202,6.944853311434299,0.0,1,N/A,19.279352498790466
203,203,3.8816188013921717,0.40018694042722514,1,1,9.767321121517568
204,204,1.6903054979744203,1.1077410628756013,1,1,16.096370642823338
205,205,9.234101000737773,5.278060188668699,1,1,19.74112968754824
206,206,7.863087196680928,7.016681510240543,1,1,20.839536267735305
207,207,3.462850620181422,5.76381702119254,1,1,11.554055065318801
208,208,5.73256670503873,3.8798053112991946,1,1,15.025163292541208
209,209,9.703420870027399,3.9757970629791917,1,1,22.83430188033118
210,210,5.340339580523766,0.0,1,N/A,21.162478656002712
211,211,1.8803563335903195,6.250544033157973,1,1,11.960742668291658
212,212,7.042860015815898,5.217062759081802,1,1,18.23928538673392
213,213,4.966434228886543,0.0,1,N/A,21.307772214942332
214,214,7.443405870832498,0.0,1,N/A,22.54537248743783
215,215,6.506475662861178,3.8693135007393287,1,1,14.845897698256202
216,216,9.802689890456508,2.141884491870872,1,1,15.217197934730487
217,217,0.7861487477576901,2.2027320074612344,1,1,20.69039103391822
218,218,7.066218203484732,1.1783774681148307,1,1,23.39506764442254
219,219,8.534636375865015,0.0,1,N/A,19.212247638876143
220,220,2.954967126589679,5.881220252386949,1,1,16.420462199329172
221,221,5.450214236533824,4.489238883675566,1,1,18.895006099601005
222,222,5.59760985980618,9.432243258634207,1,1,19.48761776309223
223,223,6.906572090964489,4.109946746931287,1,1,22.3228186695505
224,224,6.1493718685466945,5.319648149951304,1,1,16.30043819378287
225,225,4.429752323516869,8.107711550455711,1,1,21.30712149296668
226,226,0.18527009893485546,0.0,1,N/A,14.314404914317004
227,227,4.284621537415804,8.05135313970469,1,1,20.9363324903111
228,228,3.201020742721925,1.6170818571133894,1,1,6.291956598337556
229,229,0.5864009542324611,9.17683398110944,1,1,22.224801974838677
230,230,6.7651914557829995,6.363698175043924,1,1,20.63772750163118
231,231,2.438112667014931,1.859857536775602,1,1,10.846784046551244
232,232,9.269685434824037,9.375799714322534,1,1,23.548240670767164
233,233,4.588976858894872,0.0,1,N/A,20.26755978882443
234,234,1.5160808747428833,5.63731419192286,1,1,10.202950461229698
235,235,4.761402854290077,3.718317072760855,1,1,23.45358283150382
236,236,9.611404886358574,4.638476280662584,1,1,23.96356598871407
237,237,8.475950709143042,0.0,1,N/A,19.05156017495844
238,238,4.738311910324215,1.8380391906451565,1,1,19.391156681475707
239,239,1.3176346687257257,0.0,1,N/A,13.56196435290871
240,240,8.157764234526963,3.2762262433962097,1,1,18.10829067125229
241,241,9.813447864737787,0.0,1,N/A,16.08040149057105
242,242,4.034133979028699,8.447252865307544,1,1,18.061217351191008
243,243,1.2535281363984085,4.231107675832847,1,1,12.93521838621134
244,244,2.9784638850342002,2.1682493328598396,1,1,14.540611183765012
245,245,8.027678997565223,1.1527756302503112,1,1,13.629833019225833
246,246,3.924380674446569,1.6272651866958066,1,1,18.83526456017379
247,247,3.655274287790583,3.9981135298538684,1,1,19.397504884181583
248,248,3.7059433730278233,0.0,1,N/A,12.490751443430423
249,249,3.344728495881758,0.7893122345486769,1,1,10.316734507855426
250,250,9.319385385049264,5.648331458714765,1,1,17.448420598737496
251,251,2.7562020375791754,5.917827412685588,1,1,9.896088657011903
252,252,6.0737513731893,8.422447157668094,1,1,15.347088334144452
253,253,9.25898227932059,9.107568983935634,1,1,19.46594830894195
254,254,3.215799549541752,0.2851628561845976,1,1,4.133824629941897
255,255,0.35250164353428093,2.2889635445821046,1,1,8.423924159342736
256,256,4.054737019270278,4.0376250794968715,1,1,23.165044167876616
257,257,7.402765681524889,2.0071320702794826,1,1,14.210154086983252
258,258,4.623184699177255,0.0,1,N/A,23.690829616282535
259,259,0.17030663247861622,0.0,1,N/A,21.912167326823827
260,260,8.182927129902296,6.5402892397221954,1,1,17.909676641077724
261,261,8.663352220199453,6.475754997762083,1,1,15.564080029893882
262,262,0.8529601248481344,5.37206392730069,1,1,7.5298328704601545
263,263,5.392474019742705,6.782273993351307,1,1,17.487143783083404
264,264,3.542853942212857,2.4861561848970446,1,1,9.220564698339459
265,265,0.9392086547681955,8.932807430454762,1,1,17.249719035664246
266,266,9.995872981363178,4.241582634994849,1,1,19.9333169718522
267,267,4.60502912069996,5.856536791369966,1,1,15.366856958812907
268,268,9.052683927535126,3.4395236615327276,1,1,19.600850537863742
269,269,7.471025677752076,2.755168596913956,1,1,10.773883864804507
270,270,6.168447545429237,0.30875609634732015,1,1,19.401757028099347
271,271,5.517539181346568,9.255571657877546,1,1,18.55563483643992
272,272,9.968923058697198,0.0,1,N/A,18.379774245445805
273,273,8.282936838930429,0.0,1,N/A,22.272222779283286
274,274,0.4205277324690504,4.100512655077509,1,1,8.842963624421019
275,275,2.193471705955512,2.1886020995090605,1,1,16.728414403650387
276,276,2.051418645819009,1.5131865531727895,1,1,9.30383242872855
277,277,7.455850791189398,3.049151734307035,1,1,13.277792717175613
278,278,3.131460411698467,1.9971397752060704,1,1,6.338511620385106
279,279,0.7693253537260902,8.832801781170401,1,1,22.923307795963282
280,280,1.2643408793409494,3.9406407002965027,1,1,13.922787554307916
281,281,0.8597806733673974,3.8912195896690474,1,1,22.198690699491976
282,282,1.8697356643739593,0.490842128198794,1,1,16.019861973060713
283,283,9.777339738215591,4.161535299695473,1,1,21.863153314207093
284,284,2.213375809133018,0.0,1,N/A,12.57079124850984
285,285,3.244173017676225,7.1731493605403385,1,1,15.780342338229552
286,286,3.1959866988838206,2.072595953813545,1,1,17.410253608326272
287,287,1.3657180249723888,9.688197616440092,1,1,19.65676079083548
288,288,3.104014573470227,9.010831868144521,1,1,17.459208104466093
289,289,1.978274515608538,0.0,1,N/A,19.279450196177812
290,290,8.514478993197685,0.6274565440826629,1,1,15.66433747754138
291,291,8.472425442762825,0.9383544966780644,1,1,11.547205018774257
292,292,3.957873548101627,3.199860122433593,1,1,21.291215530554688
293,293,2.9232806345438647,1.3414586861256583,1,1,10.37346602618273
294,294,3.2019316037995904,1.8199962187583918,1,1,9.254931494124431
295,295,8.49366633520767,3.189277053585724,1,1,16.721609940182578
296,296,1.9785000312949519,1.9726673772196601,1,1,20.05298085280407
297,297,3.4550556814270452,4.138113274935754,1,1,18.750421303089688
298,298,3.1491382162068273,3.181436191152133,1,1,16.33758132784392
299,299,1.4116953173615165,9.093446029121731,1,1,23.583450878934663
300,300,9.243166480721456,9.567047534568808,1,1,20.60007142859737
301,301,4.373303162081916,9.504376841197343,1,1,14.627850257094535
302,302,8.207793552708168,0.0,1,N/A,14.878002320433183
303,303,8.573040602592595,0.0,1,N/A,13.709557649527667
304,304,6.110632949617001,3.8615551214647015,1,1,12.242699219079686
305,305,9.272402363701072,0.0,1,N/A,16.384336419669907
306,306,0.33171254661966243,0.0,1,N/A,23.851708720621247
307,307,3.193570295714464,1.5850257311131755,1,1,22.173423937149177
308,308,6.49490922810158,9.164244845585909,1,1,19.303856262601315
309,309,3.5957147834094707,8.553107835625957,1,1,13.352588592504283
