,Job ID,Stage-1 Processing Time,Stage-2 Processing Time,Stage-1 Machines,Stage-2 Machines,Due Time
1,1,5.266963508465626,7.095626159829886,1,1,14.196524554227338
2,2,0.17563762192651655,2.1948057089328907,1,1,21.11104589150517
3,3,5.326490410030148,3.612652690135282,1,1,22.947278177706057
4,4,8.118392221026243,8.524471638735005,1,1,21.766946817536038
5,5,2.900371951385474,6.662786063016694,1,1,22.277880078205598
6,6,6.358615384110875,8.356199303459471,1,1,15.412244408426268
7,7,0.5913540431089281,0.0,1,N/A,10.016090423607908
8,8,3.8918065390195444,3.909282169621081,1,1,12.988634571822981
9,9,1.66487177689419,0.0,1,N/A,17.99290555461942
10,10,3.108209505078161,7.057291888556275,1,1,10.771854184457316
11,11,1.7401306474111689,5.093082716141849,1,1,14.618694168717035
12,12,0.14316604554648893,3.1248777434930606,1,1,22.29150811607094
13,13,3.089547506203989,9.04870408433334,1,1,17.21153741807848
14,14,7.029843637890959,7.959898966318118,1,1,18.83258247838864
15,15,1.6142802965868985,1.3661804957833512,1,1,15.384401840118162
16,16,2.2026091934501557,5.8866679538855236,1,1,13.962326598312913
17,17,5.5101027381374585,6.785853233809506,1,1,22.13702860356297
18,18,3.8390255680313223,0.0,1,N/A,23.70340528436528
19,19,5.395259658459837,4.746678089479195,1,1,13.592240960641076
20,20,2.1186757233614903,6.872823590894038,1,1,19.725744657424762
21,21,9.271902357312584,3.754664092409409,1,1,22.459203191600068
22,22,5.178596978857227,9.200476601270674,1,1,18.655649666642613
23,23,5.461258290393499,0.0,1,N/A,17.126241323532586
24,24,3.8731880015408873,5.5954000822777425,1,1,16.40274936801695
25,25,9.916162237530218,6.124651449244015,1,1,22.93253937100399
26,26,3.3998845871129992,7.758096768507729,1,1,15.461196316201372
27,27,9.235484884174253,0.915896714389387,1,1,20.008859190059724
28,28,2.981813929318169,1.9502693179336206,1,1,16.089769127406797
29,29,9.952838359671754,0.0,1,N/A,12.601826148721695
30,30,8.879922855966676,4.35717926484145,1,1,21.20230429000422
31,31,5.8561393543004145,0.375108562844193,1,1,8.134637325572967
32,32,8.574719609856306,3.980956987297227,1,1,21.032138615489934
33,33,6.170776817320287,7.789162479906815,1,1,23.12532561941486
34,34,8.4465034348204,3.7934857973094283,1,1,20.323294016866644
35,35,0.9572018540513727,5.770773249689089,1,1,21.23566749999344
36,36,6.235016673820761,0.0,1,N/A,22.122816925624956
37,37,0.04320812043561606,0.0,1,N/A,16.127981801509893
38,38,2.3903071513919514,6.6114633817906165,1,1,15.837880134379688
39,39,1.476512180898425,0.0,1,N/A,11.179556808842815
40,40,2.887282611849268,8.717892554290803,1,1,13.53302518321099
41,41,3.2664911229397298,3.584316816468529,1,1,8.235808064205129
42,42,5.726219101194186,7.196675474445501,1,1,15.37502771765381
43,43,3.5212958118764437,0.0,1,N/A,12.90832089974177
44,44,6.910104638030812,0.0,1,N/A,16.733300095253597
45,45,4.145958645775264,3.2410861172063212,1,1,9.363819414399552
46,46,9.78246779471504,5.041348059798148,1,1,21.594786386932622
47,47,1.1880804876830375,6.329129279042149,1,1,14.448781919121544
48,48,8.244498830047325,9.495837819014053,1,1,19.38415841847082
49,49,2.7307401983196122,6.6788237848942344,1,1,16.807271200995057
50,50,1.5026264159962777,3.0535216900567743,1,1,10.459090117353142
51,51,6.9976349346783575,7.0564795532643965,1,1,16.274866956304514
52,52,2.300489481204815,2.7490094668577267,1,1,19.1115091307401
53,53,1.284003326937544,6.001729082245867,1,1,14.225427417740693
54,54,2.931417602391384,7.318269374715921,1,1,12.951715567264621
55,55,0.9214635018021367,1.9781266475626602,1,1,16.063984591874362
56,56,6.545849786571857,7.301764349604037,1,1,23.69069178909448
57,57,2.306256298305013,3.5063170549751757,1,1,13.495065833823343
58,58,5.649560897896523,0.7203936206059391,1,1,19.135670326667356
59,59,3.151073502036442,6.892117348428441,1,1,18.444540568358775
60,60,6.566465754042033,4.974416939883505,1,1,20.23509736519393
61,61,6.426896794953225,0.6883521260690362,1,1,21.660535818520938
62,62,0.37004937427689066,0.0,1,N/A,9.119639680539086
63,63,9.047823156198355,0.0,1,N/A,22.347654630523625
64,64,8.247858390759632,4.260281090261445,1,1,18.139349272408793
65,65,0.7994577568082661,5.673629642388733,1,1,23.055778617539616
66,66,9.43768880381622,6.56922534337262,1,1,17.845094231619452
67,67,1.5913466863306658,2.118770034655364,1,1,12.353030830393049
68,68,6.890397974757551,6.4978872496745534,1,1,23.91053953949619
69,69,1.4544291148096655,5.6311775666325214,1,1,7.671323440024246
70,70,8.264484436769102,4.755315253224697,1,1,19.161986773550417
71,71,2.2176414297247327,5.629258717390546,1,1,19.63855532414122
72,72,8.89399078491979,0.0,1,N/A,18.575093399586603
73,73,4.27691603796508,8.981835206359817,1,1,22.26889453857344
74,74,0.3960237205887607,9.238798001454324,1,1,12.993913856310625
75,75,5.046865871411137,4.682871877457092,1,1,19.92376465216362
76,76,1.152038850834578,1.418533321023644,1,1,22.34189604565571
77,77,1.4581421149632923,1.314708728061248,1,1,17.609659922283193
78,78,5.8287751823382905,0.0,1,N/A,23.79135751891233
79,79,4.613142608851124,1.8118822550023073,1,1,16.84107497837737
80,80,3.0235545782425097,2.9730011353414643,1,1,7.6401171728511805
81,81,7.775288649318642,6.64892768701811,1,1,14.875217666356445
82,82,5.087462819482706,0.0,1,N/A,13.890757861315171
83,83,1.7078984549112564,0.0,1,N/A,14.240113439195545
84,84,7.865378702010089,9.755229918140605,1,1,18.206972480579225
85,85,4.437236145434892,4.68945397185826,1,1,23.825004230917614
86,86,2.5428774773347627,2.4280847045138723,1,1,8.677027104509602
87,87,4.480487973504495,9.067846030031237,1,1,20.123098889691803
88,88,2.790503408914674,4.002843229444264,1,1,15.879736513848957
89,89,6.7367727774249975,3.098601184958485,1,1,14.70923361352413
90,90,8.367212751575002,0.0,1,N/A,23.595639808570766
91,91,9.349924785621717,1.164236961324261,1,1,22.559346061989338
92,92,9.877296301295557,6.64457009820954,1,1,19.94844351708825
93,93,8.520018737561164,0.0,1,N/A,16.481394444507217
94,94,4.503445645040585,5.107982616873149,1,1,21.176828358954502
95,95,2.5016446578752216,7.8099181719460296,1,1,16.914791770531764
96,96,6.55928126812953,4.774380765897339,1,1,21.202589350627235
97,97,1.2698070228624692,6.215039948956649,1,1,16.716989979607597
98,98,9.753393529822837,0.36846606896960954,1,1,14.11305490133855
99,99,5.239247503066883,7.100148658404688,1,1,22.81917454243801
100,100,2.6659032429571394,9.076248190121186,1,1,13.025601312255317
101,101,5.730277074904388,9.25480095572663,1,1,17.814577530161124
102,102,0.03000582362206461,8.972969475080038,1,1,14.534391986329926
103,103,3.5835499166794826,0.0,1,N/A,9.82648269410688
104,104,1.332416796372069,0.0,1,N/A,18.40975083415089
105,105,2.376169197424752,5.601594201645098,1,1,20.92987900440319
106,106,8.491863874862098,0.6459633177364199,1,1,19.71439313928652
107,107,5.086154339739432,8.68055076324078,1,1,18.51292850897856
108,108,2.623130008326078,6.483898161502083,1,1,15.707552596245359
109,109,6.3182685460147,0.6294206092457466,1,1,21.306508174349155
110,110,7.5570675278087,8.671989702300113,1,1,17.54714604589805
111,111,6.497150597256858,6.958020868589774,1,1,15.206949843922207
112,112,5.59255504056417,8.60196193864809,1,1,18.113184279068335
113,113,6.795804918235061,0.0,1,N/A,14.643263205171822
114,114,7.6225888560329,2.9947423517717553,1,1,11.685070911735373
115,115,8.510275508901707,5.046091941728459,1,1,17.0838903098507
116,116,7.13017043877322,3.6700333498824356,1,1,11.466849748685826
117,117,6.352933099930556,0.0,1,N/A,22.92948388728633
118,118,1.3327321379465684,0.17011625047654966,1,1,18.78961674242826
119,119,5.551812282290157,5.994569890492024,1,1,19.570261717747734
120,120,8.787009262203924,6.171288906416836,1,1,21.86024140855168
121,121,7.586798736777103,9.591425326322415,1,1,21.632062221527278
122,122,1.4698089351715493,8.91144667811459,1,1,11.358829426994896
123,123,7.693919439456631,8.498288909370874,1,1,17.15627263410275
124,124,1.3335095306890443,6.998751122875955,1,1,12.30038993395253
125,125,0.38121393868556175,3.9606021151124504,1,1,14.028064783801238
126,126,2.4709159161975713,0.0,1,N/A,22.954064917898236
127,127,1.597308870731019,9.076016850934042,1,1,20.609121067015813
128,128,3.1298523763922734,4.325045206852227,1,1,10.574923910223342
129,129,5.987508043715305,0.0,1,N/A,20.09804683990132
130,130,3.0899474567518572,7.568065173015003,1,1,18.5297948210384
131,131,9.741591837095012,1.2064568783332885,1,1,15.939196485606201
132,132,6.981408159453482,6.326202412037691,1,1,15.472473152382994
133,133,1.9172203186909975,6.800052115929487,1,1,14.027897626098925
134,134,7.424580106889015,3.093930612051754,1,1,17.955307990117756
135,135,5.672410413922125,0.0,1,N/A,18.9023557670615
136,136,9.294279829561038,4.964354345857219,1,1,17.396713275229143
137,137,9.923464197989352,9.812284875501195,1,1,22.384852841602516
138,138,9.403104328033168,1.5995122614544188,1,1,18.965407945098686
139,139,6.13484356908936,0.18404606480652563,1,1,11.402897861985924
140,140,5.40580421069318,7.733362406211015,1,1,14.756010532355695
141,141,5.557401588454905,8.276665826906793,1,1,20.22772237939348
142,142,1.0249976981043951,0.0,1,N/A,11.741203773783301
143,143,2.7587845730115967,3.8725869537318722,1,1,16.69907178901509
144,144,1.1805810634975078,6.559650028959412,1,1,11.730515623335952
145,145,5.908282385793731,4.667981671705266,1,1,17.44869024271175
146,146,5.841620086864402,7.400694115767714,1,1,17.252854688822463
147,147,9.753289217055128,5.025925382983001,1,1,17.90237498675823
148,148,4.367553192187714,3.9048283607448253,1,1,11.225768086669673
149,149,6.86774960184802,4.046889066591602,1,1,12.031090062271389
150,150,7.836573527270446,0.0,1,N/A,17.90074905830588
151,151,5.982709505729581,9.07238934885974,1,1,22.26057837891005
152,152,2.022943042604972,0.0,1,N/A,23.33126774229509
153,153,3.4342577076215406,0.0,1,N/A,15.477577943023881
154,154,7.2871202716695205,7.316373142574245,1,1,20.50051598173787
155,155,1.6804713983560926,0.9704689320751836,1,1,17.32531201961691
156,156,7.984961169897707,5.272082501463725,1,1,22.475924323002566
157,157,9.723755851925391,5.8642876449219115,1,1,20.489192254710815
158,158,1.9406608311506257,0.0,1,N/A,11.224776202322948
159,159,1.8019053852056188,4.84799833185677,1,1,8.130983064110636
160,160,0.834552329179119,2.6001444715907542,1,1,6.821396196009937
161,161,3.2614913149010705,1.1020038050945802,1,1,20.851535626764722
162,162,3.7622027135219085,0.0,1,N/A,20.040781556153135
163,163,3.0178442478985312,3.114155118144526,1,1,17.541308599770122
164,164,9.313561743445483,0.0,1,N/A,22.032094909524396
165,165,4.214841244810071,4.633600524093616,1,1,14.432337315706254
166,166,3.6021015500653117,6.874930762595428,1,1,18.909067099297694
167,167,8.49008980337756,7.989204661381791,1,1,23.86416022591008
168,168,6.704964499981912,0.0,1,N/A,14.117604347166269
169,169,5.812992992678273,3.010194828530927,1,1,10.027533390626752
170,170,1.1699189560434897,4.739855645409834,1,1,16.68699247926253
171,171,2.5523071675047926,6.208906924451682,1,1,15.228150476820115
172,172,2.5719463943150123,0.0,1,N/A,14.114362365997788
173,173,2.053227905901828,0.797328371020537,1,1,23.405818442511634
174,174,1.244762391258356,1.7867174177561773,1,1,11.202747645617489
175,175,4.9357917556925095,1.8756667782768688,1,1,16.74810183224028
176,176,6.630506988495702,4.90210458842745,1,1,12.326944556774457
177,177,9.342113842686137,7.93574349697764,1,1,19.604266821202124
178,178,3.82648157413683,3.664970530715425,1,1,22.54398470393787
179,179,9.390455923685328,0.23413065944279166,1,1,11.253736926352447
180,180,3.0364019070953274,8.789761604957024,1,1,21.99106889440369
181,181,7.7263789282462705,3.602220432200436,1,1,16.304590707540278
182,182,4.1446842297140885,5.178069060163965,1,1,10.686298809485153
183,183,7.839834962374236,2.1875965909593575,1,1,12.899208379641403
184,184,3.076094100563538,1.5560879847732967,1,1,11.76765230171093
185,185,1.065584014716957,0.7878082592291868,1,1,17.42140227437823
186,186,3.9811045409850134,7.746980369662499,1,1,12.452544423029362
187,187,4.960540802282876,4.6688285222683215,1,1,20.491333435000037
188,188,8.697188161082265,0.7659963141843196,1,1,20.569097798918357
189,189,8.268646608330561,6.363376843935039,1,1,18.856917627862025
190,190,1.0949326970492712,0.5053714175806645,1,1,13.999945573948802
191,191,8.67960608940037,7.843480760638659,1,1,20.87627241938566
192,192,3.7467752435867165,1.6285408713701022,1,1,14.269007378752045
193,193,8.697091156187867,5.771161973294902,1,1,18.46345794260476
194,194,7.067963891381702,5.474944519568304,1,1,20.126550360906734
195,195,2.400386627198886,3.223955206058112,1,1,23.321719934502532
196,196,3.9686518518956513,0.1120356433913472,1,1,8.241014661502376
197,197,1.989528196676973,0.0,1,N/A,11.358684401540318
198,198,2.978232862158565,0.05222688835204825,1,1,22.385081192515162
199,199,7.758502374567502,0.0,1,N/A,22.373917713028614
200,200,4.1971484823685365,3.752773565751224,1,1,11.707517998388056
201,201,2.207203121502055,5.377205485079567,1,1,13.814130756974738
202,202,6.645541977390165,0.0,1,N/A,8.541274787031744
203,203,2.8999699092954234,2.725812011571377,1,1,7.167000851434465
204,204,3.438985738585121,9.335981328797233,1,1,19.441705350453898
205,205,7.791588490403579,0.0,1,N/A,16.931722473462045
206,206,4.79380355089548,0.0,1,N/A,23.803679347593587
207,207,8.207135856663049,5.002409545843265,1,1,15.59541152107511
208,208,6.074605872233468,1.1218500853160651,1,1,19.90528024588868
209,209,0.6015013860352691,0.0,1,N/A,23.81086491238305
210,210,6.7741296331297995,6.354769884086759,1,1,14.073790713227439
211,211,7.028353552534242,2.8268711450615625,1,1,16.218167818365245
212,212,1.4205114244143724,0.6853901853342659,1,1,11.600502448596393
213,213,4.620748701425622,1.3853989847228443,1,1,19.933716753496377
214,214,6.483791729473019,0.0,1,N/A,13.161766832932194
215,215,5.143109446430492,0.0,1,N/A,10.259402764450684
216,216,1.9636151589803374,8.032528851020821,1,1,11.197944253692395
217,217,3.134194170435667,5.344988680440977,1,1,14.050599776585662
218,218,5.873601527878685,0.0,1,N/A,16.584210629297992
219,219,8.562959197128423,4.451220521425327,1,1,19.36608959320461
220,220,7.099648687261476,1.845411560601371,1,1,11.225912777567904
221,221,7.059762032733944,8.991678434050355,1,1,23.376573091516896
222,222,7.885856858007139,0.4419352945533228,1,1,12.720572257899002
223,223,0.8350491860129261,6.7966165607811835,1,1,18.626903678273006
224,224,8.451373240585978,0.0,1,N/A,17.915391880971946
225,225,2.484780130190394,5.718600673774117,1,1,21.795801619834442
226,226,1.1010009213037941,0.0,1,N/A,7.633601984869946
227,227,8.51236970623807,0.5732215185241185,1,1,9.639425384122788
228,228,1.2637440115235532,7.0360374535689445,1,1,13.575487589861961
229,229,8.694821639261384,9.211932897317205,1,1,21.924473471701422
230,230,0.5194245874940162,9.803627971237084,1,1,16.82089638594229
231,231,5.144521408559386,5.635987546365091,1,1,12.485131898800288
232,232,5.472310256061469,4.9196586807739,1,1,19.60401153419258
233,233,3.458995048723409,9.02233526748991,1,1,19.8639049262126
234,234,6.649640110371982,3.509604975322592,1,1,22.51549220340683
235,235,8.636074720867455,0.0,1,N/A,15.492585357553192
236,236,3.8943345269373317,1.337947613324768,1,1,10.549348827176912
237,237,7.950036818499853,9.17214779685959,1,1,21.99368761410293
238,238,8.187816075048353,0.0,1,N/A,14.71346052519016
239,239,1.872689999930791,4.3891108127192835,1,1,17.247381206711417
240,240,1.3637634920199093,2.6004809103602455,1,1,9.0594319048362
241,241,3.4799719371520457,0.11243420313922559,1,1,7.830151248555091
242,242,5.604416959941322,7.988734249838223,1,1,16.30025709194681
243,243,0.530247007979785,0.35016656209508334,1,1,4.5985551721969715
244,244,9.648458082734656,4.4047455725157025,1,1,15.155975912215762
245,245,4.107606749400149,0.07436886106783835,1,1,22.868185966358926
246,246,9.113432187276954,0.0,1,N/A,15.292925054039754
247,247,2.005165788994642,0.3809501428798545,1,1,12.043782879762693
248,248,3.041514730556376,9.395908195952778,1,1,19.20555407820045
249,249,7.549659038833322,3.0826938085486644,1,1,11.851541418981967
250,250,4.898929748990474,9.521105929063529,1,1,16.130488652892076
251,251,2.1891114221863317,0.0,1,N/A,16.308754521724076
252,252,7.788547013106166,1.7555574882799363,1,1,22.654301054287174
253,253,0.8449979625289272,5.677124973306494,1,1,17.560480353540072
254,254,8.506384139084647,5.042901754109611,1,1,21.852661527528525
255,255,5.33218795308613,7.446393804805037,1,1,12.863671688567834
256,256,3.4723030349000905,5.399637731851388,1,1,11.98126480242466
257,257,5.0616141421881276,5.366220564777393,1,1,22.717420669053265
258,258,6.059721298682889,6.431795912162613,1,1,22.460355477570275
259,259,7.409179571882339,1.0238024539294222,1,1,13.260416982776057
260,260,8.455598843710568,0.0,1,N/A,23.62251286525739
261,261,6.6590542914304995,2.1850128935547195,1,1,9.355984548957995
262,262,2.277328801619034,7.354067462962259,1,1,10.714668721562166
263,263,9.465824889410671,6.947772681876806,1,1,18.911073562618366
264,264,6.940225510727775,0.0,1,N/A,16.531956616647477
265,265,2.086245551278884,6.3856933191066965,1,1,18.570174134920087
266,266,2.138732152181557,1.5655175101752028,1,1,22.548285780589087
267,267,6.64464475100411,6.494202675346788,1,1,22.150061997152992
268,268,6.955575933720278,8.305480186776103,1,1,21.720261676370274
269,269,6.63818592689446,8.86290953556466,1,1,16.44900945172269
270,270,2.4842464134825293,7.449748873796368,1,1,19.67658451472455
271,271,8.300114631281946,5.94194171888581,1,1,18.355377054118527
272,272,2.657797627291653,0.0,1,N/A,15.518695291637027
273,273,8.250475569266214,1.1427570136177367,1,1,23.304077038379404
274,274,8.438910579731965,9.597679794681387,1,1,20.305286240323866
275,275,2.232045005180454,4.61874481482107,1,1,23.901289944359807
276,276,6.437891185365968,6.959548389439897,1,1,15.929799828237615
277,277,6.386432400884313,1.5063405979460387,1,1,18.029766982848265
278,278,5.831422569997909,4.637957306268925,1,1,13.955533375171115
279,279,4.772075810879144,6.307798140320392,1,1,22.121183240653423
280,280,8.867042869604635,6.516168304475954,1,1,19.44717680414766
281,281,4.495937982049856,9.58707417270151,1,1,22.50184697230928
282,282,6.238045164775366,2.1302964317936857,1,1,23.030012354636693
283,283,3.655763735029965,0.0,1,N/A,20.682049638550957
284,284,0.7004271633502501,8.181868941043298,1,1,11.420663255800651
285,285,6.523675074892693,0.1359700315582435,1,1,16.785470227892425
286,286,6.5577067797669555,7.633901947266949,1,1,19.55631359649073
287,287,4.061539041364299,0.177834977163851,1,1,23.261485734008883
288,288,2.2979151710790724,9.880664484817244,1,1,19.300616108825608
289,289,2.865811654491841,9.321872981837203,1,1,14.119916822874394
290,290,9.04296034843963,0.0,1,N/A,21.294639746024433
291,291,6.341620636799207,5.818195107685296,1,1,17.178187849418368
292,292,7.763717068943326,0.6788305254166094,1,1,20.71872741837556
293,293,3.4282016426551722,5.796907250824632,1,1,17.998966531962107
294,294,5.236400077973312,1.7577529722677199,1,1,20.95992435209221
295,295,8.964690576499926,9.700247262716461,1,1,21.6045277404793
296,296,1.0617499302400668,4.762925518663838,1,1,14.533640018157143
297,297,1.006213662305544,0.0,1,N/A,11.855977920342262
298,298,8.380761074746934,5.741585788905441,1,1,16.489573134737793
299,299,5.93604854564364,1.0810961185869983,1,1,10.409603698082112
300,300,7.479981958233637,0.6648128039482337,1,1,18.53543685759498
301,301,9.681391447853922,0.0,1,N/A,19.49100159257224
302,302,4.069195711152157,0.0,1,N/A,7.063874269600498
303,303,2.0332791078833887,0.0,1,N/A,16.86806879306161
304,304,6.969597578321145,6.996761822609965,1,1,20.423749084515066
305,305,8.937613727148147,5.355242298474513,1,1,23.932315636202635
306,306,2.929795124933585,3.1662814354338806,1,1,16.70341602459181
307,307,5.275977931360179,9.662383362537,1,1,16.894330508460754
308,308,8.330882724537066,6.995241309096971,1,1,17.46792466756357
309,309,1.5921403915566412,1.4461745940368187,1,1,11.64450093017312
310,310,0.30184193102220425,0.0,1,N/A,9.751505557542364
