,Job ID,Stage-1 Processing Time,Stage-2 Processing Time,Stage-1 Machines,Stage-2 Machines,Due Time
1,1,1.431928856458381,5.532873882007569,1,1,14.469531728426546
2,2,5.439601829441085,9.545332678687368,1,1,20.090183806805772
3,3,2.1498049073690737,0.0,1,N/A,15.950251415137663
4,4,4.01226969173686,3.7442358070738804,1,1,11.343633882974737
5,5,1.7785557144319109,8.008252728326116,1,1,21.19429598599963
6,6,7.200150204975052,7.776798076503859,1,1,23.24691326624157
7,7,0.1942771078492811,0.33602301845632065,1,1,16.145290094747665
8,8,9.295848317287499,7.091549342798464,1,1,17.601494610804245
9,9,7.950928060255961,8.196485466547786,1,1,22.45697363111118
10,10,2.8742852093269144,1.1627039463459,1,1,23.125525816072358
11,11,2.52369625514987,5.755023784680622,1,1,16.064322208118895
12,12,3.6562170563453957,9.109180039805846,1,1,19.282430966157985
13,13,0.7994770596929757,0.4203470016031008,1,1,10.076244489991353
14,14,9.670984730572352,0.0,1,N/A,20.97332028516967
15,15,5.085194106382859,0.0,1,N/A,7.287875480830531
16,16,3.3424590599888395,8.356162533514116,1,1,21.752933536569675
17,17,2.8948020945656703,8.142247308655076,1,1,13.314452006757964
18,18,8.746929182578082,9.143817567771656,1,1,18.00479369285601
19,19,2.4736087576849277,4.487639174161091,1,1,21.727429555472245
20,20,3.478521802061314,0.5664682047788117,1,1,20.413835711884772
21,21,2.0935084568002194,9.421096990650653,1,1,16.083066023029197
22,22,7.1169057166225365,4.5088284938633425,1,1,15.39682554534806
23,23,2.887633592951284,7.527805857048985,1,1,20.88735522325303
24,24,0.30670413853346234,9.43676550124247,1,1,15.035491466289958
25,25,8.03257025955103,5.034689230647238,1,1,20.39229427613883
26,26,5.168773710754387,4.104628884818551,1,1,10.246012324282265
27,27,5.799228294591811,0.0,1,N/A,17.24415443562068
28,28,5.12695138090653,4.734947419896641,1,1,19.263103940436807
29,29,8.615380850835185,4.53824718440107,1,1,19.233244188766953
30,30,1.7574554628344963,0.9954638616492195,1,1,11.98516935333851
31,31,6.32528338226939,9.768824486912296,1,1,21.45292506339474
32,32,4.4222638362665565,8.76311987570493,1,1,20.754827806627045
33,33,6.815559428300507,0.6916847663393721,1,1,23.333673539941586
34,34,4.936391177530299,9.577742387300564,1,1,23.10995246374187
35,35,6.643789733558313,8.152897856537066,1,1,15.34658931849253
36,36,1.6199641227023998,0.9630335736197737,1,1,6.923551374595258
37,37,4.851295851070262,2.265990763690037,1,1,13.129906407242828
38,38,4.073241110461115,6.924284795366935,1,1,11.668785695052154
39,39,8.883466052966858,4.43603185843474,1,1,13.563956165602367
40,40,5.389677287676643,0.0,1,N/A,21.302658813475595
41,41,5.184779980397566,0.0,1,N/A,14.911736552915825
42,42,1.5011644628199172,3.1925787266062478,1,1,23.690115818673416
43,43,6.371582199307907,2.8989816900971874,1,1,23.263268484109474
44,44,9.179222798314902,9.311328972593696,1,1,18.5973669300881
45,45,1.982713131752093,0.0,1,N/A,20.26748646699002
46,46,2.342364902366004,5.55153411623256,1,1,17.35743786222324
47,47,9.956795413643231,7.0276437736260355,1,1,17.62667111982059
48,48,7.37309666254578,0.5225830992630132,1,1,19.001053164516577
49,49,4.725667560010336,0.0,1,N/A,9.468787941016961
50,50,7.023980003571074,6.609257277397006,1,1,20.65077696901406
51,51,9.12499996926394,3.5382450885790897,1,1,15.418542058417874
52,52,9.99970878076127,0.0,1,N/A,21.42894907569856
53,53,5.9460556016719766,0.816544919907074,1,1,12.929268689306804
54,54,8.089564253558787,1.1431735358887074,1,1,19.594621323451467
55,55,5.022902139894624,3.8625852007023997,1,1,11.586392476285098
56,56,0.9701301258862338,7.8475516930781435,1,1,15.509803744299463
57,57,3.484368356252885,0.0,1,N/A,10.19934342918206
58,58,6.542777349436049,7.0008974607742,1,1,15.206432894924095
59,59,9.238018456731746,5.620000691149069,1,1,20.946877008247526
60,60,5.920854298092172,0.558141788943205,1,1,16.13166237879569
61,61,9.193686878470835,5.953283032005906,1,1,17.204282797451437
62,62,6.867799521022456,5.269816860198083,1,1,20.508533184937274
63,63,1.0472779824388112,4.317413424403789,1,1,6.401549257610471
64,64,0.7917853129150199,0.1952909170092676,1,1,4.4135795549104015
65,65,2.474886055245238,3.573532457135493,1,1,10.896774284007256
66,66,1.68377427875941,0.6207022731618439,1,1,8.727238165700326
67,67,6.7435098765852235,1.7529918012458612,1,1,23.439045409275856
68,68,6.596205473965239,0.7822280762322043,1,1,22.925300122525343
69,69,2.042757522826496,5.313807260184613,1,1,21.187285640551437
70,70,9.86451892652685,4.669379582896978,1,1,20.136954589859194
71,71,6.632587727357718,1.4772731153954333,1,1,9.774420064934661
72,72,5.563982667342029,2.2112911093443124,1,1,21.642058932898955
73,73,9.849765455492106,0.0,1,N/A,13.152458121244765
74,74,4.7210316944645845,4.412251149899045,1,1,17.33999248050911
75,75,7.219778127652436,7.620884420432311,1,1,23.61034586187874
76,76,6.295013763692507,0.00364265953627374,1,1,11.493857561766013
77,77,7.920597358097971,4.810924948413852,1,1,22.401176839999568
78,78,6.456255944552435,9.889820587699413,1,1,22.642409162316255
79,79,0.3207609390498467,0.0,1,N/A,9.173088906361125
80,80,7.702348907583271,1.29259557030455,1,1,19.69069656459702
81,81,0.6913498540012619,7.811403212520379,1,1,20.680086475797243
82,82,4.247399107606405,9.705934736220508,1,1,15.222296668815176
83,83,1.290414435997005,2.801489554885036,1,1,17.510429646143592
84,84,2.2081785767069295,7.9912347156626335,1,1,13.746118124057741
85,85,7.539597628233774,0.9313328773238483,1,1,11.050568674591943
86,86,3.189317718394069,7.097401601228819,1,1,20.186827877642415
87,87,5.280912380355231,4.187492933775284,1,1,12.170519269323677
88,88,0.7747199569605723,0.0,1,N/A,22.843601124250355
89,89,4.071881565547503,2.665468631300371,1,1,18.35979592123266
90,90,8.940379874154496,7.068112944403266,1,1,16.338682383197884
91,91,0.6665104988522619,8.74259441023216,1,1,23.996548931482707
92,92,9.311328671610314,0.0,1,N/A,20.675694800536178
93,93,3.526911983080044,0.0,1,N/A,12.96578981120755
94,94,9.704563182915933,1.9640989479813753,1,1,16.173168359969456
95,95,6.542575415464452,0.17633356294217584,1,1,7.419314178577562
96,96,5.53860355833951,1.293481272323883,1,1,10.980725201863628
97,97,5.415331640180772,0.0,1,N/A,23.23304645916031
98,98,6.236013029568142,0.0,1,N/A,22.936646175374506
99,99,1.7660198190051701,2.0658738902600273,1,1,12.525978173787031
100,100,4.191928181274117,8.497780374840447,1,1,13.019589471838101
101,101,6.763118675109397,0.6004391418575805,1,1,12.262934144125037
102,102,1.2894276203222665,9.08766139868353,1,1,18.923609883273016
103,103,3.912352737026384,8.134285783880536,1,1,22.84815164502466
104,104,8.229229758282674,7.142845819382528,1,1,20.429881936567895
105,105,5.236476604920876,8.859036510605836,1,1,19.306204425944106
106,106,9.238366693212974,0.0,1,N/A,16.59476696262733
107,107,3.548951201193795,0.0,1,N/A,23.160624256239707
108,108,0.2869902388039214,7.246469568132578,1,1,13.875417289732397
109,109,1.2740984566245983,1.5904355994100428,1,1,19.104765006322445
110,110,7.07810447750819,8.356810152877935,1,1,18.88567254689331
111,111,6.783699003676489,4.618089845803479,1,1,16.591629983176926
112,112,2.829818500140042,8.528791660248453,1,1,18.79043262972128
113,113,6.244545948856381,2.486375187446491,1,1,12.352195418563591
114,114,9.194310438885582,1.8686712016671059,1,1,12.187031869741546
115,115,5.1438546595288415,0.9562784975785954,1,1,6.439822893270614
116,116,3.087991614452114,8.6898095686011,1,1,11.922358719629178
117,117,5.7334276898939365,2.7671552946974645,1,1,22.517339289568017
118,118,9.801298582890631,0.8076162174023449,1,1,21.154812436773746
119,119,6.473109401714171,0.0,1,N/A,20.33833198742966
120,120,5.967282308053758,5.430440169517013,1,1,17.000281969731304
121,121,1.4615207089100857,0.0,1,N/A,16.550867837663663
122,122,4.4222729775988086,7.6813945913254695,1,1,17.8042707983385
123,123,8.427537530732117,8.775185621214817,1,1,19.253274194170483
124,124,6.675646310559639,0.037336310121932614,1,1,19.86322646955305
125,125,6.656574351703542,4.96013214129837,1,1,14.669994911407382
126,126,1.5442431241867371,0.8245720055493466,1,1,23.8158291121439
127,127,2.4072367454890795,7.728117350536266,1,1,22.444770041765388
128,128,2.046130457621201,1.9607436623471086,1,1,19.20707994680835
129,129,9.158830582681029,4.411543711161291,1,1,20.348286852865474
130,130,1.351561552537489,6.585062470999322,1,1,21.141559574794318
131,131,7.393843508896323,4.39302061571313,1,1,15.06476283958364
132,132,9.720825042178483,0.0,1,N/A,20.37034326479529
133,133,0.7927610825577724,3.037268019938372,1,1,21.38582968635664
134,134,6.23929204386387,3.0991876020328837,1,1,11.3816727222862
135,135,6.836587133479664,0.0,1,N/A,18.746489979992567
136,136,7.830460280281523,9.039695971855018,1,1,23.725209015981598
137,137,1.3466398072762786,7.627041225353061,1,1,14.400793629017581
138,138,8.006886843487846,6.996781396390026,1,1,23.981305730866517
139,139,7.455127244831296,2.8969091692995317,1,1,16.353986412970333
140,140,6.123534975642154,4.946548133126355,1,1,20.118437955310966
141,141,9.814408745009738,8.672186026106312,1,1,18.524258355223203
142,142,6.958073633645871,3.6576996401184516,1,1,14.385503976260063
143,143,4.361479686870588,4.466368727659341,1,1,21.17161177016805
144,144,9.319175517692479,1.6056335997610605,1,1,22.03053289780265
145,145,1.317500049699467,0.11485391072195816,1,1,6.45582670894146
146,146,7.58173277643192,0.0,1,N/A,13.350254525245283
147,147,0.6285058549741906,5.53156885475104,1,1,7.681561854742431
148,148,5.005639600226579,6.3549578288521635,1,1,14.499540707190551
149,149,3.4910668472504023,8.306892759484844,1,1,17.331231943826516
150,150,8.353631277347693,5.471206706346142,1,1,19.246023050696042
151,151,7.8696666966067745,0.0,1,N/A,23.202299989276003
152,152,5.3566325645015676,8.149626845239943,1,1,18.396617104240164
153,153,3.0410641976941912,6.653678340962523,1,1,23.10757142503227
154,154,7.341409922109934,0.0,1,N/A,16.404776709069516
155,155,5.643339697051532,1.4949519335721884,1,1,22.5622031736674
156,156,3.0977429020996237,8.15770831907622,1,1,20.317085148780777
157,157,5.45839206907143,2.9555666004638272,1,1,15.927926022510494
158,158,0.9836107759134005,6.738566667676272,1,1,17.509073981200675
159,159,9.777854720681983,0.0,1,N/A,19.228130954187513
160,160,3.8893437914074536,7.937038820048171,1,1,21.93420511267436
161,161,6.208222268206458,4.564979518359415,1,1,11.47634274785147
162,162,7.160444237732686,3.113609012621814,1,1,10.90853100265626
163,163,6.912867350739519,1.6078089177566468,1,1,23.834240236754987
164,164,8.63942998110737,6.3998228749541175,1,1,16.33988176168823
165,165,7.736745909292039,3.455555193876446,1,1,17.581451685625282
166,166,0.4596336183531069,7.33896811686393,1,1,13.513990160879755
167,167,6.965983862169502,6.90960917787259,1,1,22.21284174127195
168,168,1.9324655319151163,0.4436301443767887,1,1,5.695776856335769
169,169,4.8745472175618785,8.01715627335864,1,1,21.892020854838236
170,170,4.547446220268414,5.424155114560203,1,1,10.359746942369044
171,171,0.8888928035066901,6.850690604670064,1,1,17.314180043977927
172,172,5.008937548962319,8.34587501983869,1,1,14.60258466117775
173,173,5.006783478575797,0.12467109379848851,1,1,9.316504066032447
174,174,1.5330333121776218,1.113166472734134,1,1,5.866555621070054
175,175,0.0233810725517547,7.235963894996193,1,1,19.447084070624037
176,176,7.353729487042166,3.090046790107639,1,1,18.524931702011486
177,177,8.833989201086336,3.474320196074739,1,1,14.855030336582598
178,178,7.556373617086179,0.0,1,N/A,21.846464682499427
179,179,5.997316361711949,3.6393611020441483,1,1,18.843030338683526
180,180,0.062080979289098615,2.182352857895941,1,1,7.820247568772002
181,181,7.088091807324379,0.0,1,N/A,16.768343189823817
182,182,5.797476065770199,0.19629746011432192,1,1,15.476293123181087
183,183,1.2926288540403297,7.475015036848529,1,1,18.157706307992008
184,184,5.442129548638825,0.0,1,N/A,10.85814332350593
185,185,9.488146887322765,7.214952058751718,1,1,21.686821903063148
186,186,5.350777940562592,9.852728473250513,1,1,17.41858352292285
187,187,6.602852953974673,0.0,1,N/A,22.06035135871759
188,188,0.7459502045072486,0.3469512807420627,1,1,3.429447127475786
189,189,8.029512400774937,9.474898467546666,1,1,18.36656673289187
190,190,9.077206883235394,0.35787270356706147,1,1,18.294484487912243
191,191,0.7223255295367126,4.822906289832903,1,1,8.686648681230318
192,192,9.714754531990167,5.8399934171512875,1,1,16.48893003182332
193,193,6.950032589978159,9.271768314062959,1,1,17.394878607137183
194,194,6.708896564686552,0.0,1,N/A,17.766489452940164
195,195,6.9824503943279375,4.44083926272072,1,1,21.271471639707176
196,196,4.043991442518781,9.80816469923602,1,1,14.39889566244619
197,197,4.231871521114005,5.258807936723119,1,1,20.641644290554424
198,198,2.0325019346464526,6.832300353028016,1,1,12.300454972628906
199,199,4.890192432979048,2.8029855730403916,1,1,9.107262735841525
200,200,3.6938441657030863,9.57098736325524,1,1,20.55744249091456
201,201,5.16076717196897,4.387047585504863,1,1,12.862675381678864
202,202,2.6903814681250173,1.5766635656574424,1,1,9.837473675717703
203,203,8.282919156652083,4.998858204006718,1,1,13.740522364052463
204,204,4.063534750522184,0.0,1,N/A,13.533676145007881
205,205,2.285499224320419,5.297164324501593,1,1,11.761566624825718
206,206,6.504955039644276,0.0,1,N/A,23.06361840353991
207,207,6.355010211783868,0.0,1,N/A,18.17858758452462
208,208,5.86652681366057,7.2848779807262805,1,1,23.832651347441768
209,209,2.618026069818371,3.378654752481549,1,1,6.340730381075115
210,210,2.8838587775716986,0.0,1,N/A,8.35767662950429
211,211,0.998187871087941,4.727245975409453,1,1,14.224416218667194
212,212,0.30803870396298505,7.398480880097047,1,1,15.162665464493823
213,213,2.294769958490938,7.910871860728058,1,1,13.929287753839892
214,214,3.406502506361683,0.0,1,N/A,15.362789217598568
215,215,5.285812571121692,8.239760262420289,1,1,18.114806215840304
216,216,9.236966835704353,4.330203612426997,1,1,14.512253600640383
217,217,8.280164962372954,6.688747410097941,1,1,23.4673248731073
218,218,7.02651795383153,0.0,1,N/A,19.978722680510803
219,219,4.673872277837216,8.460833033745072,1,1,23.30317420537856
220,220,5.015129456311528,0.8014935380718824,1,1,23.40904580122743
221,221,5.000802978404534,0.0,1,N/A,21.68988915127232
222,222,4.304316527898754,0.0,1,N/A,9.366504208631664
223,223,0.792601787413838,0.5143050689731521,1,1,6.81702131140885
224,224,2.0650402112912536,0.8229096834276195,1,1,21.417837112060614
225,225,8.738926309300139,0.0,1,N/A,17.121937856752183
226,226,7.8958537398755055,0.46909497999999994,1,1,17.309941611531237
227,227,3.395775025567488,6.240394840770636,1,1,13.695922457778133
228,228,9.881936708291438,0.0,1,N/A,15.565617683282364
229,229,4.827717398299213,0.9278662436636431,1,1,11.76333330975509
230,230,1.2796474744295616,7.631387208126885,1,1,16.76076307696943
231,231,8.296556031102647,1.7026729237665994,1,1,13.650961287771391
232,232,3.955351624199228,0.0,1,N/A,22.093748085207775
233,233,3.157320214154807,1.0033264405370967,1,1,14.767420409438204
234,234,5.329274911431181,4.097820334118668,1,1,19.79442485954132
235,235,8.48801966888638,5.876751883874627,1,1,18.77395859977444
236,236,2.3985388849861176,1.5208719229052614,1,1,4.918296379007728
237,237,0.032496400520746205,5.552440403209057,1,1,22.400079300619115
238,238,0.6677288461452957,4.418588527942999,1,1,6.193716790395248
239,239,9.582189969174156,7.876229987716855,1,1,20.7887742628457
240,240,3.855263318796008,7.223888292622926,1,1,15.338859381315054
241,241,7.741351114319737,2.934046748445791,1,1,22.91630250523912
242,242,0.19824302477394973,5.86421052594612,1,1,20.394831940294225
243,243,8.020035744231325,2.847316286899695,1,1,16.47595472453223
244,244,4.190653657658801,8.040555053446077,1,1,21.19806925228952
245,245,9.809746383434513,2.8180534180790975,1,1,15.213636367036155
246,246,9.590608969329198,9.969874641472298,1,1,20.994946181186627
247,247,0.08549874732388218,1.5535587086741787,1,1,11.60810129894097
248,248,6.541441394455285,4.6128163416028265,1,1,20.700141064112117
249,249,4.10024827653854,0.0,1,N/A,11.676273508658646
250,250,7.51034384238944,4.527801404756261,1,1,20.174034774656015
251,251,4.051740681037045,6.423898421550815,1,1,12.37483142725242
252,252,2.5661469176977016,8.05699158832288,1,1,13.916732555045842
253,253,2.131909315623275,9.916432588372057,1,1,16.854923469176157
254,254,5.390313899056601,8.604221333758538,1,1,23.853349514036964
255,255,5.281096286012672,7.484537467838532,1,1,23.84939396507981
256,256,4.40151725102965,3.07315123602264,1,1,22.62604795479472
257,257,6.428704871542087,1.942204289266265,1,1,18.30366781581315
258,258,8.172886125849782,6.103385548276375,1,1,17.486326255888056
259,259,3.126368231012784,8.438551227682973,1,1,13.80338921354642
260,260,1.2957156376741474,8.486040872218322,1,1,12.823927286597375
261,261,6.558069485999509,0.5616779370738167,1,1,11.119394816164197
262,262,9.617995688444404,1.7208463476464886,1,1,13.408619929807958
263,263,0.7499395395213126,2.7406265819089293,1,1,20.860466371308195
264,264,0.5641140419398705,4.599851413311676,1,1,23.366933761898512
265,265,4.089581431839552,8.395474403300204,1,1,19.169755692202536
266,266,8.196808410983806,4.255876103470339,1,1,18.339181474938187
267,267,8.115319961405577,0.0,1,N/A,22.176515548194878
268,268,4.262219775175717,2.342936613197831,1,1,12.572209849295207
269,269,2.5273500505395763,7.921623783140373,1,1,16.12651190864014
270,270,2.125076051630285,5.171366758856392,1,1,16.684830467164012
271,271,7.755207611565077,9.422208345012837,1,1,17.618169015211038
272,272,7.446064161144374,0.0,1,N/A,9.535433491330148
273,273,5.219296540119396,8.858691119356259,1,1,16.035263775038725
274,274,8.070860510452647,7.975547910079024,1,1,18.9301540886821
275,275,6.058308223486795,2.1196757084450404,1,1,13.208215173457871
276,276,9.365193992004196,5.373038321867394,1,1,22.023911918108936
277,277,0.3299480995512438,8.258523496169877,1,1,15.132129538712945
278,278,2.331036306320434,3.1130778126883785,1,1,11.29432737804772
279,279,9.062617030187155,8.131534976748116,1,1,18.22410070257517
280,280,8.331696859854988,4.374500640887908,1,1,14.375006293249006
281,281,0.35189571686281007,9.450158469623844,1,1,22.790924240029412
282,282,0.8533579365001698,0.0,1,N/A,4.862000397811918
283,283,3.4306153290111183,6.516221670975671,1,1,20.46548477741031
284,284,6.893355121009339,8.965905804331477,1,1,23.117685085999955
285,285,8.346626911241708,0.0,1,N/A,18.08916618765341
286,286,5.8361362267273895,1.0924983768062224,1,1,12.986527483576417
287,287,3.3634432948715176,5.577390413095854,1,1,16.1602372311146
288,288,2.305343031008209,5.9265090077419025,1,1,16.389719987006508
289,289,1.3074914086509548,0.0,1,N/A,13.473951208347735
290,290,4.91757804659836,9.9602873975974,1,1,22.317190751807907
291,291,3.109787085628235,0.0,1,N/A,21.632132154810098
292,292,4.5052432098793505,9.669824482318278,1,1,17.411470123671798
293,293,9.939685656231363,4.786467134392406,1,1,22.74651361081426
294,294,7.174754279325879,7.599748695491821,1,1,16.767253338018694
295,295,5.669407185768831,5.663591835174801,1,1,17.92988312242271
296,296,3.4208364689431625,1.0051110069255231,1,1,7.674823153680809
297,297,0.23177626238100713,3.641210765594154,1,1,22.060964287179498
298,298,4.287207909018832,1.0707786617956838,1,1,9.336642205907534
299,299,5.614734940500008,5.255693092551566,1,1,11.788470203213397
300,300,7.254119995668481,0.0,1,N/A,13.383617746765118
301,301,0.7704922208516374,6.96255860509631,1,1,13.233302709744255
302,302,7.181246643583808,6.783119369321291,1,1,14.821421408496983
303,303,5.578004465365974,0.44974572728509576,1,1,13.459270747844009
304,304,3.921483718487304,3.4942955139150222,1,1,11.050763850903124
305,305,7.792923920547533,3.9035202564267344,1,1,17.356117640426213
306,306,4.5554122242107296,0.0,1,N/A,12.22909743771168
307,307,2.3531124746457266,1.7093339679850383,1,1,20.865665143844513
308,308,2.427311884692682,0.0,1,N/A,13.009997029323916
309,309,6.801650512949462,0.0,1,N/A,23.753567685739306
