,Job ID,Stage-1 Processing Time,Stage-2 Processing Time,Stage-1 Machines,Stage-2 Machines,Due Time
1,1,2.644893078686298,0.0,1,N/A,22.47144357124389
2,2,9.82250965716065,1.217920451739608,1,1,15.962963774545553
3,3,6.65081875510109,0.0,1,N/A,16.00747127041878
4,4,6.456134731545337,7.693551628474732,1,1,22.91463485174198
5,5,3.05736980323882,3.4876239626384145,1,1,7.255512614301623
6,6,6.055275123652363,4.3360459681819385,1,1,13.733776598273224
7,7,9.373676642983286,4.839707242336581,1,1,14.749248204687085
8,8,5.340209285056611,7.4945932060885925,1,1,18.13906038037537
9,9,1.6772800146614109,1.829826069915338,1,1,22.54198803767885
10,10,0.462851493043539,3.26795442322779,1,1,9.21614211541839
11,11,2.028077181396275,4.56663983159264,1,1,13.441429263116069
12,12,2.48101020642274,7.267331663939965,1,1,12.093153377712158
13,13,6.571900968256633,4.353813601512092,1,1,18.38190203088443
14,14,0.944475183308694,2.329075865321246,1,1,17.96045636850678
15,15,7.1069118402981974,9.108785418305214,1,1,18.135397865639728
16,16,7.1611878011769345,0.0,1,N/A,12.87847339900457
17,17,2.984173766548693,8.357025842068573,1,1,23.89955932720497
18,18,4.644310077656662,0.13558179649830193,1,1,14.398130893580207
19,19,7.567380002410876,3.667300081388375,1,1,12.227709789492732
20,20,3.7720725292714006,0.0,1,N/A,19.677750238192818
21,21,9.107502348634037,3.9349297880801783,1,1,19.777997809504498
22,22,4.264034373676121,4.9487817064953985,1,1,16.851813771968917
23,23,1.542728608114664,2.147813907614178,1,1,15.459512845299395
24,24,1.1373119233553763,1.2928575470346093,1,1,9.082749901570061
25,25,8.471018324217162,1.006327101059702,1,1,15.222387264692948
26,26,0.06646164333646065,8.748557036113926,1,1,14.442514787994352
27,27,1.321586661589369,1.9421506377707753,1,1,21.717676140357078
28,28,7.3296037793660975,7.5254129102073755,1,1,16.797812104050152
29,29,3.4099884799388236,0.0,1,N/A,9.358567967731723
30,30,9.483426054071288,1.9755137121187172,1,1,14.073580052889172
31,31,2.5820661442132598,4.887874865129662,1,1,21.456864920696084
32,32,8.343583521595905,0.6608081987253067,1,1,10.127569522983109
33,33,2.4790848625674275,4.697370033736218,1,1,11.461362852929742
34,34,3.270461362379634,9.792450857989346,1,1,13.643463091664392
35,35,0.05344642058595972,4.239164663492284,1,1,21.506948492568604
36,36,7.703180372446132,6.5494956687095485,1,1,21.616039029828002
37,37,0.6346461987909469,4.358061880147468,1,1,11.533041425225427
38,38,4.028029720230389,1.3566583897295037,1,1,6.270167015804742
39,39,1.0705156943464145,2.2062674211209945,1,1,11.215050121584301
40,40,7.450424163359227,0.44203395596273065,1,1,15.24706208073935
41,41,7.718351515224869,8.803459096423301,1,1,18.120447510653094
42,42,5.515794306698889,0.0,1,N/A,14.98454560226311
43,43,5.098053961468874,0.0,1,N/A,14.919524195733366
44,44,0.332144550184964,2.1229429273858367,1,1,15.66419442132581
45,45,6.35853118943545,2.830720792881105,1,1,13.16889576920221
46,46,3.2170814405747263,5.789111479756771,1,1,22.128788007300688
47,47,7.237135835958293,0.0,1,N/A,19.1883401003441
48,48,2.5411849355194316,5.461932222926148,1,1,16.379201233646434
49,49,8.660001765461521,7.189883606511551,1,1,15.860955891971718
50,50,0.12986368136298498,9.273348557088516,1,1,17.080824860603855
51,51,3.7807880530028193,2.5291052189140983,1,1,13.003695744604808
52,52,3.0878859334849618,2.38554164609332,1,1,22.508867260498246
53,53,2.119268956083471,7.005881683070426,1,1,11.678679453058306
54,54,0.9893705953230691,7.703427728524775,1,1,12.078553216139568
55,55,4.666193349341638,0.0,1,N/A,13.411025623133323
56,56,4.863504408359589,6.191231067502424,1,1,23.008853009981244
57,57,9.686962561798616,9.465935760958565,1,1,20.68192323472698
58,58,5.134570125768276,4.601162704233806,1,1,19.755277868729408
59,59,0.08513191058567293,7.7146281391754865,1,1,10.927846728788616
60,60,7.057817644828225,0.0,1,N/A,20.838433554241767
61,61,1.6963021117496768,8.482753379609646,1,1,18.949732342630103
62,62,7.620214235831352,0.0,1,N/A,16.314908544536472
63,63,7.584798637936528,5.622766768141563,1,1,15.151471956143528
64,64,9.274245871149533,6.5098468997818335,1,1,23.48770030885988
65,65,5.420024000398267,1.192540650722237,1,1,8.201191506816798
66,66,4.876868183231547,1.7393823011303045,1,1,12.339403003502753
67,67,1.540045603155653,2.4935396959675526,1,1,19.10101795196401
68,68,0.9032337328051687,9.154728181700783,1,1,23.208108745168328
69,69,3.576073551358893,0.19685017773368063,1,1,5.638549957346291
70,70,7.804584280330121,4.279026835778419,1,1,13.961335935691219
71,71,2.5610182240979897,0.0,1,N/A,10.823623231183367
72,72,7.978460652035304,1.7071053874879372,1,1,20.48672778488336
73,73,8.26093692966747,0.0,1,N/A,21.393901581115376
74,74,1.7854501749263607,6.883820303175421,1,1,13.56336876458661
75,75,0.2479296017256738,5.893628317809686,1,1,6.576223478825589
76,76,2.259169292969675,5.042513396519894,1,1,13.034413243423547
77,77,8.21389304550286,8.31267618688159,1,1,22.493302742241593
78,78,6.879055338686553,0.0,1,N/A,21.415144157152046
79,79,0.5993759236405927,1.3421032192907056,1,1,18.114327773569865
80,80,3.559953619343146,5.992419779351619,1,1,23.18657409011586
81,81,0.8620049766706894,8.737067010904887,1,1,23.818522846684978
82,82,2.8982940008233014,8.415876779708602,1,1,12.600185091721443
83,83,5.593615946494755,4.093871894323097,1,1,21.55888023354113
84,84,6.63144524382469,0.0,1,N/A,17.166937521862707
85,85,7.947727086194321,5.4745274384578355,1,1,23.818756743386107
86,86,4.209756760132471,7.860009318798651,1,1,12.926032002625842
87,87,3.060934721838061,0.0,1,N/A,16.54624755696937
88,88,4.642667625370645,5.393528320770216,1,1,21.64210555403305
89,89,7.474277299844837,2.9352439577078737,1,1,15.549335250390813
90,90,0.7114203287619736,0.0,1,N/A,11.56366530577085
91,91,5.7518976158818615,3.575885409935972,1,1,18.638386626559882
92,92,3.4439152565157993,1.814048978152163,1,1,18.645555385004922
93,93,4.3930460643091465,8.115513942641947,1,1,23.518704402479273
94,94,4.874498302479113,3.154133035840505,1,1,11.03670452369837
95,95,6.088351292021245,8.894025297843346,1,1,17.061344085679618
96,96,6.0913472052053255,1.578143504141798,1,1,20.037693404729268
97,97,0.4142437952445177,0.0,1,N/A,5.3084253401725645
98,98,0.7692114019622276,9.652787599680472,1,1,21.825869322805097
99,99,8.240130550961936,2.6115681005170686,1,1,12.727745303922395
100,100,3.5279376167222143,6.395743405079962,1,1,14.897942246907192
101,101,7.75173135358534,5.51551799693896,1,1,17.026702215636313
102,102,9.199421250124253,5.092516457658251,1,1,22.84670318320198
103,103,6.449275567005679,2.5486795977589347,1,1,10.930890790881769
104,104,0.9480600529820893,8.691337540913086,1,1,22.16260510533697
105,105,4.692711191835855,6.1597082259755815,1,1,22.213645392913772
106,106,7.225837312356026,4.577935437223336,1,1,11.869541556548047
107,107,0.8529003411662872,4.122534127494266,1,1,10.746251243752546
108,108,9.61450349846476,2.0500111970783887,1,1,15.203909040050608
109,109,0.756096757689042,8.202618225901642,1,1,20.03104027731103
110,110,9.709921938192366,0.0,1,N/A,20.50345495933884
111,111,3.894051639573146,0.0,1,N/A,10.968376596598791
112,112,8.237945615748,3.1172861853940717,1,1,20.610702852283886
113,113,5.866905122963749,7.413113883699172,1,1,15.178791981389757
114,114,9.823680927531948,3.8418557524244124,1,1,14.955114923426153
115,115,9.607934376914832,8.88799633742271,1,1,23.941180478594667
116,116,6.136471556935492,9.605260636451261,1,1,20.055065989502324
117,117,3.489226754683422,0.0,1,N/A,13.808827738198792
118,118,2.5431690207427304,7.554770786062211,1,1,23.20936288837264
119,119,7.820958952549124,8.530619524916288,1,1,19.77583396368653
120,120,5.393165046960934,9.82479354286215,1,1,19.037849510008826
121,121,7.859658870895294,6.530718475069966,1,1,15.860309099788703
122,122,1.6052899899948536,4.821103325309632,1,1,8.627885150345092
123,123,1.8175730091662268,9.385813996553804,1,1,14.583574146016424
124,124,4.19755744178398,3.1723643729111672,1,1,22.03775241401729
125,125,4.673705044977661,0.9922076039640471,1,1,7.809563403084971
126,126,1.600497162016311,9.174651502149766,1,1,20.488830468158625
127,127,1.82878212633388,0.5446691580129193,1,1,17.32275471849489
128,128,2.602918268463219,0.0,1,N/A,10.664187748734324
129,129,4.5670947151196355,0.0,1,N/A,15.837603918034107
130,130,8.899863187368473,9.809369361466722,1,1,23.253309721310778
131,131,7.787005211495554,6.637754900371325,1,1,21.59287561324176
132,132,9.930423382232574,0.5045649552657561,1,1,12.793193224647162
133,133,1.93721568156345,7.748571792232836,1,1,12.810117664555198
134,134,8.522863453198543,2.5599488904298573,1,1,17.623927671189453
135,135,1.919207914555654,6.787368018032365,1,1,8.731757698207328
136,136,6.823874144168338,0.0,1,N/A,15.526593929048728
137,137,3.357999624247332,0.0,1,N/A,13.425918770392013
138,138,9.589659424233904,0.233141135218502,1,1,21.89073416730553
139,139,2.8366540287274846,0.0,1,N/A,22.300206891286845
140,140,2.2260751706662374,0.0,1,N/A,21.95531368715804
141,141,7.26297260589034,0.0,1,N/A,22.345987406727247
142,142,0.881280023137978,1.8797192031497267,1,1,9.365819387076911
143,143,4.824206228059787,5.838607660084648,1,1,21.93668211114543
144,144,1.2258969156945987,0.0,1,N/A,13.041359131080478
145,145,2.6507996370598894,3.5718469052383894,1,1,9.097869265130436
146,146,9.8053314618582,0.8866743499177487,1,1,11.582814736906098
147,147,8.546065364070968,2.8698258526141585,1,1,17.687464539046125
148,148,1.1101970367517755,0.0,1,N/A,14.387811938102061
149,149,6.856666408838025,8.496087714779216,1,1,22.061790951089765
150,150,1.086994948116099,2.408896071377188,1,1,16.857527516328204
151,151,0.9195545094844582,0.0,1,N/A,9.566722178461514
152,152,2.295834502074039,3.4664202000216204,1,1,21.976638413097646
153,153,6.642646309470537,0.0,1,N/A,22.605638718059094
154,154,1.54050701176758,4.429794055908326,1,1,23.49718566215082
155,155,1.2760019458852978,3.674682764505036,1,1,6.03810233238199
156,156,7.497157828461768,2.063112127692307,1,1,23.885028969004868
157,157,5.522917668523566,7.245646554283571,1,1,14.447413324834741
158,158,2.067748828187661,0.0,1,N/A,16.78372673543887
159,159,4.407514954030183,3.704621093653354,1,1,8.159546264244545
160,160,4.1684734521183735,4.368873730366209,1,1,11.38511148766692
161,161,2.190018433351635,4.333950613651032,1,1,8.983493152356882
162,162,1.9792630285722046,0.4606342614071013,1,1,12.722922495541056
163,163,7.512917236378658,9.725211253550167,1,1,17.888422071014503
164,164,8.699186715111406,7.957523714057685,1,1,19.899914266232024
165,165,5.493807622900077,5.53746427440939,1,1,11.757101995791325
166,166,3.5910990707933377,1.7675954062657895,1,1,16.865796898423348
167,167,1.1146562373346103,3.204522132985593,1,1,11.03599592604682
168,168,7.158412922715187,2.6912813216117906,1,1,19.94093731957294
169,169,2.1836164920913994,1.2734917918422373,1,1,10.000420360506883
170,170,5.090105198468829,9.154882628957914,1,1,20.291680832204413
171,171,5.193964512996469,9.040741140442956,1,1,14.346221064685679
172,172,5.13639219037754,0.0,1,N/A,15.380784846170927
173,173,1.6880816071702576,7.826077548840093,1,1,12.53227515150613
174,174,4.637780619080575,9.920568963696008,1,1,19.983151775675086
175,175,9.220404911768199,0.0,1,N/A,13.568161307366074
176,176,2.8263555424655395,7.193487589211821,1,1,18.26794330143307
177,177,8.984785063238276,8.644738184719557,1,1,22.726666465418603
178,178,3.4171719485876952,0.691972948706544,1,1,4.303905604664925
179,179,8.067084040745408,5.443398883725903,1,1,15.047761568373547
180,180,8.147720438772913,5.934744103732406,1,1,21.67357951471402
181,181,4.230129502124092,3.9098475589502546,1,1,19.339204016120448
182,182,8.742262408421507,0.7557310130537853,1,1,20.909626748563813
183,183,7.100355262084765,2.9572965028448204,1,1,15.83547243119116
184,184,2.5766720780511223,5.195954137257558,1,1,19.58679198108092
185,185,3.733820355746822,0.26960581236757264,1,1,15.743544910484006
186,186,4.897431474826304,6.789762657377665,1,1,15.147804226648336
187,187,3.5051400087291107,6.033299106872249,1,1,15.776127524199563
188,188,6.459060228547811,3.8359031939969834,1,1,18.319542232399904
189,189,2.905138107838222,8.895529968920092,1,1,22.78667769050572
190,190,2.6906224687480194,3.690610905783842,1,1,10.282137320823017
191,191,9.269178228723003,0.0,1,N/A,13.77312827146395
192,192,0.9149017366766565,3.049967378486903,1,1,20.938964714018066
193,193,0.7554891640084815,8.888538794545799,1,1,14.071978928857245
194,194,6.93480989055776,4.750338954358048,1,1,12.131971528115733
195,195,6.959531926288195,8.203719709171153,1,1,16.229808624109694
196,196,1.5095599632140833,8.09027048589558,1,1,10.955807079692082
197,197,8.403728106157821,9.800171851877232,1,1,23.347912537693563
198,198,9.723215169345888,9.325983254549538,1,1,20.589268549529884
199,199,6.338629516182415,4.9860453492272985,1,1,12.921076769678612
200,200,5.711823843553495,6.17983997908078,1,1,14.995217974223657
201,201,6.092542566703912,6.744176487025571,1,1,14.242371505854372
202,202,5.551225796365294,4.105739354460745,1,1,16.727869451984283
203,203,9.751488612639307,3.71166881838642,1,1,20.78885186831232
204,204,7.617157903611647,8.9475132330848,1,1,16.819223178867926
205,205,1.08556179116446,9.479192141115117,1,1,17.752614103504328
206,206,7.503618467321381,9.291062445984128,1,1,17.556483990107075
207,207,4.235408176806472,8.986929256393573,1,1,18.311887266937273
208,208,4.179675149999743,0.0,1,N/A,18.637674021227728
209,209,4.080860202242015,3.7726850943251824,1,1,18.543633352662813
210,210,4.242075504681871,0.0,1,N/A,23.38357559192849
211,211,8.684149506395997,8.606135776494359,1,1,21.278502653064347
212,212,2.047402145889634,0.0,1,N/A,7.775586078356426
213,213,3.7151163948076373,5.301117363895798,1,1,20.076881804756415
214,214,0.6268378310134493,0.0,1,N/A,15.277584215372373
215,215,7.682422979522833,0.9665221097358512,1,1,20.95530480093165
216,216,0.08489386088941675,0.0,1,N/A,16.585106511735702
217,217,2.7369498124701686,2.9394602638766254,1,1,7.581934613938489
218,218,9.142397091346277,0.8888291921752167,1,1,23.78516644037698
219,219,6.566311504353185,8.630031288005847,1,1,16.165798268536314
220,220,9.070260932436264,5.318793387203806,1,1,16.235026796107203
221,221,4.05256651409884,3.1220119947684233,1,1,16.701786645876417
222,222,3.152748051085854,4.366476154801249,1,1,14.557263237961674
223,223,9.597696116836996,2.0655740748556473,1,1,17.708208973115145
224,224,9.199164213804842,5.100625408030836,1,1,20.385372680282753
225,225,5.249742003738534,2.0390619937158974,1,1,19.501950228427557
226,226,9.291619258189398,2.3299555830494967,1,1,20.438952543158223
227,227,6.954253272338042,9.46922532082043,1,1,18.99677936037497
228,228,9.253428321331649,4.924460653980444,1,1,19.824152065723627
229,229,1.1643261869922927,0.0,1,N/A,22.18004309889478
230,230,1.6045645731263913,0.12708548755999471,1,1,9.129495059492491
231,231,0.09686784022251538,7.929522551769493,1,1,19.27957530688232
232,232,8.273332524115084,4.058683902000205,1,1,19.414919070827032
233,233,7.944053763662482,9.052836482148738,1,1,22.968175079685174
234,234,3.889033331406093,4.4242727234138535,1,1,16.19949092148726
235,235,8.361784965509948,5.557977786953241,1,1,18.013582794541993
236,236,0.5447192102465948,9.165916004665352,1,1,20.77827534535249
237,237,5.915787986994932,8.75812560823974,1,1,17.207362289478564
238,238,4.84813205611937,7.44960374408263,1,1,21.93894326185117
239,239,0.876019477368637,0.0,1,N/A,15.939762126278652
240,240,7.710182065268113,8.227497522056336,1,1,23.38268708908289
241,241,2.5162883964976226,2.6946285596041863,1,1,7.834584862344098
242,242,1.4623823208904319,9.03582424288188,1,1,13.365722309668756
243,243,7.388129009503835,0.0,1,N/A,22.00946113805023
244,244,5.613330840865648,5.169817380108786,1,1,23.151831745815272
245,245,6.8506317481364265,0.4765622698030958,1,1,8.073902242897015
246,246,1.7378657307104517,0.0,1,N/A,14.796638901828496
247,247,6.76678326585808,0.0,1,N/A,23.917103329453063
248,248,8.310131375225678,0.0,1,N/A,20.37442866394097
249,249,1.9122475188481314,1.785216437010202,1,1,6.372284936234932
250,250,2.967379191546149,0.0,1,N/A,15.007759562639308
251,251,1.3443377935538647,0.029915057580492954,1,1,19.07134554347816
252,252,2.8372106472958656,6.858902793668669,1,1,21.695238761936608
253,253,6.9521250829314605,6.915837027099165,1,1,21.468288479029336
254,254,6.87225370694175,0.0,1,N/A,23.60177883985001
255,255,5.483081846661357,5.51378290850407,1,1,23.149933497403097
256,256,7.866021003207193,1.072260002270562,1,1,18.472477173357582
257,257,1.9650250837581917,8.221311563526225,1,1,20.296205965868904
258,258,0.0019632958400972456,0.8248969076703361,1,1,11.967922696223631
259,259,8.15435456005838,2.7411047313085826,1,1,19.371298604948144
260,260,2.7782379032844586,2.0514307080650775,1,1,19.866627877651474
261,261,9.45133026156203,9.72476517198253,1,1,23.71450648665969
262,262,6.350979721791884,2.349142747206159,1,1,13.855730250833174
263,263,1.4629798796472315,3.2853214610143278,1,1,16.864133519590027
264,264,4.88723806514026,0.0,1,N/A,17.310768512925513
265,265,1.2738572249357438,0.0,1,N/A,16.656287846776763
266,266,3.2036532083126845,6.671861359817325,1,1,19.510531033112848
267,267,5.933585609562572,0.0,1,N/A,15.22933670172148
268,268,8.630967731900931,1.3646906972504669,1,1,10.528899012018355
269,269,7.228599668389483,0.35911112479269036,1,1,21.172030532849057
270,270,7.114417685356159,6.352997964722943,1,1,22.183066154290117
271,271,3.938453900438982,1.4123864474111092,1,1,20.968198011821364
272,272,4.840545989030804,5.9169832117179775,1,1,18.09633286652008
273,273,5.59856767526401,0.0,1,N/A,14.421995087800237
274,274,1.5224187851744886,9.327341118898026,1,1,13.639468941229104
275,275,6.479925821209803,5.801035838518384,1,1,19.252382435104085
276,276,5.072268105535689,5.095650737492775,1,1,23.694153369466942
277,277,9.253812755978037,4.260285479823452,1,1,23.406136249652953
278,278,9.876743486763788,2.4334446250171005,1,1,21.284299689223175
279,279,8.319939807303184,2.401854667749043,1,1,14.037848548906842
280,280,7.047701806753544,2.7775853775050607,1,1,11.897372183520392
281,281,8.369002810654608,0.0,1,N/A,17.510658745603873
282,282,5.397254104794409,1.2299490790080314,1,1,14.417291085998734
283,283,8.315497452667687,7.52894192330844,1,1,23.607124119258724
284,284,8.612588506565222,0.5902985596965127,1,1,13.28595260736439
285,285,3.998312911836377,6.680867434599692,1,1,17.372877763938572
286,286,8.252766022711906,9.189020353457154,1,1,23.675607632529342
287,287,9.535023379095229,9.172758112929431,1,1,20.167862149157322
288,288,9.65748716893706,6.771325874682182,1,1,18.966375200913223
289,289,4.126596297951082,0.0,1,N/A,12.808477972532913
290,290,7.00757330368094,5.04482733530483,1,1,18.05243993996978
291,291,9.797178998296,9.986148750050702,1,1,23.13644171625397
292,292,2.6838904729252153,0.0,1,N/A,8.943419610036212
293,293,6.132368764662144,5.275924454021497,1,1,23.766805521558
294,294,6.839645826558945,1.9032671549729419,1,1,19.845701608805584
295,295,6.992287176136593,0.0,1,N/A,22.654234627042587
296,296,8.346601732675815,0.0,1,N/A,23.921582928453237
297,297,1.3294698410373595,9.50946195992758,1,1,16.59915824581305
298,298,9.044977658352174,0.0,1,N/A,20.95565305645267
299,299,5.02361820879372,9.581959613561972,1,1,20.723693628065984
300,300,0.5681070464208982,0.0,1,N/A,21.140797779043787
301,301,7.190290419192843,8.164014321156358,1,1,22.194861404975068
302,302,4.858095096044799,2.7871603316780105,1,1,11.377797328683208
303,303,1.755753397985923,1.7251646804711762,1,1,7.815515993108405
304,304,5.684094241916578,5.564151547661375,1,1,20.029482799021572
305,305,0.020667448483039363,4.122927099877901,1,1,5.7068373712371665
306,306,3.791553323696588,0.0,1,N/A,20.840605933691773
307,307,5.229444043909358,0.0,1,N/A,21.723586314289033
308,308,9.939836520884107,0.0,1,N/A,17.10021352191822
309,309,9.304374985456006,3.0175089851021175,1,1,20.977594223995098
310,310,4.712474005348495,2.167004358056901,1,1,12.55438755542782
311,311,5.841285183586855,0.0,1,N/A,23.214743684483132
