,Job ID,Stage-1 Processing Time,Stage-2 Processing Time,Stage-1 Machines,Stage-2 Machines,Due Time
1,1,6.400519090694504,7.211589655438928,1,1,19.284007599651716
2,2,3.0158125291940774,3.12397314746512,1,1,12.582461475572448
3,3,4.564377447391116,7.0024277167084605,1,1,12.523096996107935
4,4,5.599045870865655,9.968256174067225,1,1,21.957914889538777
5,5,9.519489639976856,0.0,1,N/A,22.918157179342117
6,6,1.6300676281839743,4.554794673224382,1,1,21.826086527288055
7,7,7.933496924047677,8.463081280076635,1,1,18.666544854910867
8,8,7.357985925659623,6.0949685780008345,1,1,18.232608680319174
9,9,0.28661322271872236,4.415362281043085,1,1,12.400788886467101
10,10,4.053821153579877,7.975888834468373,1,1,12.310410104030888
11,11,4.915512659749773,8.832788851183906,1,1,16.820925058261466
12,12,4.584525985350497,9.013319646652102,1,1,18.84217034846537
13,13,8.527153735718368,8.40978403347934,1,1,23.73416975000678
14,14,0.5501299092505207,9.033189454171854,1,1,12.584164568240375
15,15,9.295978571035775,3.4542507815180357,1,1,19.860973987768052
16,16,6.462087315039405,0.0,1,N/A,14.101097270981427
17,17,1.5128522601913108,6.8596097132045255,1,1,9.731345677231003
18,18,5.741147885840473,3.3416372030364205,1,1,12.69862330117913
19,19,3.452633599077597,0.3577674132669839,1,1,11.426931921351718
20,20,6.17014510968005,7.673375235879957,1,1,21.74303409780602
21,21,6.156715968519286,6.8082438670633625,1,1,19.358162627044486
22,22,9.204305880654296,0.10476497832734966,1,1,21.028673665851226
23,23,0.7489108676607603,2.779702650997785,1,1,11.379616003408525
24,24,3.4947977408132047,4.016533621943072,1,1,18.795310062138867
25,25,4.9045684678299715,6.035764309418974,1,1,13.133139900943036
26,26,7.372366085080754,9.289158565988215,1,1,19.040451089090514
27,27,8.946202399968818,6.596624044359039,1,1,23.775333817145373
28,28,6.935068881309819,3.529789433949561,1,1,18.37634399230764
29,29,1.3288140209009713,6.128447431672822,1,1,22.413275586384408
30,30,4.242411074224762,2.6631847825763497,1,1,22.760401886462823
31,31,0.6190129777603426,6.024719186156831,1,1,16.166967295117978
32,32,0.9873011337785387,0.0,1,N/A,11.35708053161275
33,33,2.2180780653892085,9.302107051570935,1,1,13.90272902232083
34,34,2.182672808750483,4.915291814871738,1,1,7.104225237192493
35,35,5.624815110591506,3.00412360906126,1,1,17.34346952859771
36,36,9.05825783720064,2.699137266585482,1,1,23.982595703117468
37,37,1.4792433512505865,0.0,1,N/A,7.671794399935305
38,38,5.825197556285851,7.8635181913034895,1,1,21.42513999812197
39,39,6.3724363065496545,0.0,1,N/A,23.413477071130657
40,40,2.1942922054596306,9.495512438397526,1,1,13.409753229273694
41,41,2.4051980907945767,5.874378488327981,1,1,13.401058013172396
42,42,3.6251544549646986,0.0,1,N/A,23.621199532736703
43,43,9.945743516516103,9.028512389618765,1,1,19.201121343173362
44,44,3.070741526177858,3.2180300788753744,1,1,14.627671660265513
45,45,3.2996673552196176,0.0,1,N/A,22.82631359668849
46,46,6.329997253483222,2.389103184659127,1,1,9.445202514097556
47,47,8.754539106662866,0.7510400531410388,1,1,19.440946990371955
48,48,1.3728871522665331,0.5436938766062827,1,1,10.099283421545715
49,49,2.1497406258720186,0.0,1,N/A,14.455855170887121
50,50,7.6396242410169375,1.8902217759397077,1,1,19.036552447250028
51,51,9.86289463221063,0.0,1,N/A,22.395464414250927
52,52,9.427188709742488,0.0,1,N/A,16.369848818585595
53,53,8.58335026767741,7.865447083175142,1,1,20.154804020317464
54,54,5.406414946001169,0.0,1,N/A,23.586846251736965
55,55,6.668594113431977,8.223277954820192,1,1,20.930411732787938
56,56,6.306915553679051,2.7477890274403363,1,1,18.31232221621132
57,57,5.968869336009107,0.19133203879559524,1,1,16.173942088226152
58,58,8.445603683310562,7.018177476225165,1,1,23.769040797664054
59,59,5.155437622478983,5.1355145104324205,1,1,23.152842693647415
60,60,7.335241015718919,4.30352101138971,1,1,21.442031923484556
61,61,9.842913697248752,6.087836210471592,1,1,20.583988030780215
62,62,6.040270565585426,9.055172578375835,1,1,19.167339060564437
63,63,4.811417357197464,9.504917693113837,1,1,22.55451596247225
64,64,7.854079126490183,0.0,1,N/A,14.264886713406257
65,65,4.839002643664267,9.433386431497574,1,1,19.3586520291404
66,66,8.67892239352668,0.0,1,N/A,22.63780204971323
67,67,5.848965883541774,4.208859296763098,1,1,23.158117049997777
68,68,3.7041066468781656,0.0,1,N/A,20.223900170135813
69,69,1.6090487488595084,3.3410578495073406,1,1,16.1015873112609
70,70,8.448762638647686,5.976095731320667,1,1,20.60902538633433
71,71,0.3727182793894568,6.213924493873569,1,1,22.24201029724901
72,72,3.3915100535477904,1.0495778977332237,1,1,6.489263905369142
73,73,1.2627334875520446,2.0318212051240536,1,1,5.767014096375871
74,74,0.3942670721848951,3.245356688080582,1,1,15.946872096562542
75,75,9.795351772582343,0.7371321576101109,1,1,16.716721495791223
76,76,5.446061306760468,5.0599376810089245,1,1,21.462347986007977
77,77,3.764204421433337,1.2462739915250631,1,1,15.472010700382139
78,78,7.549851144597146,0.0,1,N/A,15.609101797636503
79,79,8.6474600886858,7.992953966139764,1,1,22.190996473192403
80,80,9.062702571117665,5.1104267316491025,1,1,16.730726267897847
81,81,3.092344503902841,0.0,1,N/A,18.050024528403107
82,82,5.313814961569728,0.0,1,N/A,16.041304438613295
83,83,5.043565130491024,6.334009094378911,1,1,14.76481830973423
84,84,0.4551344411702718,4.067496289737981,1,1,10.791001122007792
85,85,9.505866829627802,0.8178269483709866,1,1,15.123880367894927
86,86,3.1636102494592464,0.0,1,N/A,7.332415087096292
87,87,1.5362956014464468,1.4887622133947254,1,1,20.45298581352216
88,88,2.619475210459279,1.6936392385309718,1,1,16.21252231168066
89,89,5.00640986797274,1.6091270127398316,1,1,18.53129576459524
90,90,4.46578584647868,8.944951369810061,1,1,21.67431614335891
91,91,4.425096752142203,1.5018528224886862,1,1,14.294576926257763
92,92,1.153239353728136,2.212598518590101,1,1,17.626117319936423
93,93,4.3275403427593675,6.075287994753379,1,1,16.760362939724057
94,94,9.325731639956546,0.0,1,N/A,20.176716500380117
95,95,2.902216339968601,2.2402866822963285,1,1,6.0015282971880435
96,96,3.5081070123699867,4.2266614521774395,1,1,21.05851984170301
97,97,4.783462629292098,0.0,1,N/A,21.30899680285843
98,98,0.5957222231998727,7.104518577137256,1,1,23.55357843151945
99,99,0.03243348285333347,0.029933934916631655,1,1,22.116719984892317
100,100,8.920627908894566,5.9582811407822875,1,1,15.556376789515175
101,101,4.462943858565892,9.498539933185794,1,1,21.909087463615602
102,102,2.4688110580864486,1.4871960707356813,1,1,11.548721709848468
103,103,7.641372931582007,8.270615929040574,1,1,22.725647783993594
104,104,5.3173418391924,0.448285526697878,1,1,16.50662584062212
105,105,2.864688238506017,0.0,1,N/A,10.079146463217848
106,106,7.376220550148531,8.983452592616047,1,1,18.255563732689946
107,107,8.02974672082714,0.0,1,N/A,17.53686901200043
108,108,7.27788385104419,9.11109321450722,1,1,20.9064148745293
109,109,2.6495243253871017,6.517711084989676,1,1,15.81909591352398
110,110,8.298313495033327,6.640531298840319,1,1,18.07435085151076
111,111,6.930371968451495,9.331599130068758,1,1,17.055541817025745
112,112,8.960353313008099,0.0,1,N/A,19.136444028386315
113,113,4.793373740250587,6.103376213099622,1,1,13.277755747416629
114,114,9.11181007427425,4.51845490218942,1,1,20.603546137085026
115,115,5.4491004248613155,1.7385563749972943,1,1,11.317104493945296
116,116,7.377498682032835,0.0,1,N/A,15.65218836751928
117,117,9.55194586349499,8.358332793268573,1,1,20.91615148326266
118,118,8.59258337755667,7.550078293251492,1,1,17.01303555946696
119,119,5.724407783256985,8.594256181598354,1,1,21.107181612248365
120,120,2.056800506756473,0.0,1,N/A,18.46934918369229
121,121,9.395440070882978,8.374064928915075,1,1,22.406469655330046
122,122,6.167769703981024,3.747256841916433,1,1,10.91363619183768
123,123,7.00450780934978,3.949151461131184,1,1,23.18961293375054
124,124,8.716329662781334,6.658849848889733,1,1,17.519916816285455
125,125,4.939713499163512,7.064676989238978,1,1,23.245579182176975
126,126,8.079315546767958,7.9117536801654245,1,1,18.836829687856547
127,127,0.2907846747843612,0.13533141998635867,1,1,5.508946231597208
128,128,2.1657410706309923,4.629065208738532,1,1,14.89061724378189
129,129,5.122330072141819,9.619282386782144,1,1,22.286799110664262
130,130,8.585611308989646,9.810135390867764,1,1,21.285901323326176
131,131,2.991295314630431,5.2174674966750425,1,1,9.30361382901498
132,132,1.9558328800774916,2.5074367668706623,1,1,10.77503294173114
133,133,3.019652258294533,8.506327093418125,1,1,17.06901256692086
134,134,4.450216642784546,8.381546541655563,1,1,17.173031613237953
135,135,8.405449802563261,0.0,1,N/A,14.784799372534195
136,136,3.2263741631138734,0.0,1,N/A,18.159289922982353
137,137,1.1233622272215094,0.0,1,N/A,14.71598452674046
138,138,8.845887815924343,5.228532470520319,1,1,16.265018213920428
139,139,2.8060189288555994,4.063929584944108,1,1,13.348601264188272
140,140,4.6320523593496254,1.9333535513057654,1,1,18.13066068524225
141,141,5.069278891129184,6.941989879829268,1,1,17.235906066471706
142,142,7.538559778621282,0.14741641458243193,1,1,19.001300186388434
143,143,8.296484119915853,0.18690217520893837,1,1,19.547117552419934
144,144,9.089470812132408,4.976537966473781,1,1,22.394839133970308
145,145,1.4834952284087533,8.891011420559302,1,1,19.73475830033071
146,146,5.875518267272874,2.6705006376160134,1,1,15.61697393923452
147,147,4.479726489444627,0.9057596487620867,1,1,11.567481145699997
148,148,4.735994702122285,2.7629037743843208,1,1,20.528045636622853
149,149,0.32079012048581657,8.395697424117266,1,1,10.922451875117773
150,150,3.004702545305995,7.836707005085145,1,1,19.85851439004704
151,151,1.1327610766322571,7.934106327875212,1,1,23.738732956423124
152,152,9.748548821876422,8.686147290994109,1,1,18.600570064871487
153,153,5.978165655645267,3.632223103233776,1,1,10.742064044781014
154,154,9.830428405561237,8.245482327729807,1,1,18.968754771882963
155,155,6.3542458952363585,2.9316636956055797,1,1,13.96164263324125
156,156,0.8633267551101087,6.0146307344361585,1,1,21.954736566971683
157,157,1.112659463353275,0.0,1,N/A,17.74123680384706
158,158,9.208273601245827,1.659160479329147,1,1,22.81519765874681
159,159,2.537466105003797,0.0,1,N/A,14.325922657683105
160,160,9.167590240071242,0.7298916894673113,1,1,15.10858235469305
161,161,6.945681684349432,8.087627328719549,1,1,20.65680714453931
162,162,8.005955538891826,3.2076711655060484,1,1,15.922021883144426
163,163,1.9800904867567048,6.4339533140140945,1,1,20.870804431554646
164,164,8.540217200316913,8.7665973491977,1,1,21.753420595360037
165,165,6.070509238373061,9.96928262044456,1,1,23.347763653022213
166,166,2.578349681456338,7.445841863308158,1,1,14.339258357199707
167,167,9.141783391946339,6.591657588682955,1,1,19.1926701347913
168,168,2.425983172009042,0.0,1,N/A,18.24860563214399
169,169,3.617754797473304,2.3860371592529384,1,1,17.737251697043348
170,170,4.962037529752279,2.671889287550977,1,1,23.816195752810266
171,171,8.909710206209075,2.1308670486109396,1,1,14.277997195831794
172,172,6.660106502966936,0.0,1,N/A,18.615097531906518
173,173,0.10366070333724275,5.149088414521382,1,1,6.956231028761834
174,174,3.5039316027223655,6.604171838445959,1,1,13.5126499416235
175,175,8.043567720459556,3.5204558916850734,1,1,15.795802358837312
176,176,0.4399948087364691,6.119491485747588,1,1,18.960595619234528
177,177,7.493204409832778,9.765197396314338,1,1,18.223427124947634
178,178,0.23655000798892822,1.67221934601953,1,1,4.161436111436561
179,179,9.026213587475745,1.458730000269618,1,1,16.487426417375048
180,180,0.21597807701242755,4.035683316796998,1,1,6.329002589266965
181,181,7.397380322023155,1.318845429861365,1,1,20.292269362012
182,182,3.745797013348736,0.0,1,N/A,11.856843304890672
183,183,5.2436746140470305,0.22199558305318168,1,1,8.089885309078433
184,184,5.743178539933286,8.471633576260487,1,1,22.52510253110058
185,185,7.581187680796825,3.437603416770755,1,1,19.46903449906796
186,186,6.97440480285688,8.3761622165273,1,1,17.184281455572602
187,187,1.8514177143524835,8.762133988475952,1,1,15.027113373232302
188,188,8.079575466375443,1.714018862369081,1,1,19.30008444535015
189,189,5.826926572453159,1.803327439320549,1,1,16.02715284075363
190,190,0.3904611638689204,1.8422981326092247,1,1,16.503253461817916
191,191,3.2576778137998694,4.239231044864513,1,1,9.960946726629896
192,192,6.599686526253144,0.0,1,N/A,22.791610733748655
193,193,3.245021025881627,0.0,1,N/A,12.719497230400181
194,194,8.734309604371308,4.421224166598908,1,1,14.89234694250095
195,195,7.475519388560658,0.0,1,N/A,21.593328590834425
196,196,9.61141628011073,3.4480186766666954,1,1,13.143553029878573
197,197,4.3365168833164045,0.0,1,N/A,10.044298216252662
198,198,4.179492907646242,9.75409473717842,1,1,19.078267205815557
199,199,7.591284836019518,5.58522227934125,1,1,18.563769233889218
200,200,8.910575175856273,3.5379904268785256,1,1,14.739816904653882
201,201,6.034718237366013,7.241664710415496,1,1,15.2376347920617
202,202,1.6348155395577113,0.0,1,N/A,19.879763811601396
203,203,4.236401698608746,6.249112114451391,1,1,12.915261649126382
204,204,9.754577551153375,0.0,1,N/A,20.406156346198667
205,205,9.704295007180317,4.862016972334229,1,1,18.378069660916292
206,206,9.689524679437069,2.113137935338033,1,1,13.83834884696585
207,207,0.004693275442275713,6.956818198892964,1,1,16.229105454620864
208,208,3.4820899852123177,5.693003090664053,1,1,11.508810613527903
209,209,0.7822826566373886,0.7368933712187986,1,1,6.553643364017339
210,210,8.076535247071932,6.221941971144322,1,1,20.250626660043153
211,211,9.161518471890448,6.496498443569046,1,1,16.8046137846179
212,212,8.776188086792754,0.0,1,N/A,23.65397313465988
213,213,0.9438892644849595,0.0,1,N/A,16.033770452414867
214,214,4.04511122673226,5.857359761219609,1,1,10.184811337396622
215,215,9.667762183154045,3.6190204973633855,1,1,17.715979530959164
216,216,8.607816715219398,5.761767903348229,1,1,22.049998059327827
217,217,6.618452399504306,9.118866406484221,1,1,23.210757799796635
218,218,0.9514127337445633,0.863342043251929,1,1,15.066982790928494
219,219,7.097959976133224,2.77238564740228,1,1,19.545002329699294
220,220,7.684170316925982,0.0755201133733141,1,1,23.959930281094913
221,221,1.3915474884864754,1.6778295368725682,1,1,20.824717193901268
222,222,2.548866016413384,8.825389931086637,1,1,12.049956715616922
223,223,8.319062503508034,3.8651510273096292,1,1,21.771951892777942
224,224,0.4546771823937068,3.507659808045638,1,1,16.476267577268562
225,225,3.7743342561508806,2.630211506472442,1,1,19.635365303074035
226,226,3.7973129677695105,0.6181327933428327,1,1,16.889981786376424
227,227,0.9049824271746876,8.91879404574567,1,1,14.871712576523436
228,228,3.259302502352007,0.5722902651018891,1,1,22.24475469168935
229,229,6.2569169043850925,9.272803435215899,1,1,21.457529746332025
230,230,0.9629200536709637,0.0,1,N/A,16.104399025707313
231,231,6.1806629377495454,6.6022553508179005,1,1,22.01458120671692
232,232,6.724012202568609,1.625591222743239,1,1,21.989802485544665
233,233,6.593244465429794,5.992855652019417,1,1,19.868326844949248
234,234,4.1467457008242805,0.0,1,N/A,23.070908244895172
235,235,7.746048022019375,8.981909974384628,1,1,19.593621584421566
236,236,7.6530175326290175,5.366671860798073,1,1,22.0981018137702
237,237,7.480712696929506,0.7841521546814156,1,1,17.72422492191896
238,238,8.148887648332266,8.278161172604358,1,1,16.474146241745593
239,239,4.1647284138972225,4.227480732539553,1,1,15.195026655003222
240,240,3.572892058365529,7.498476856401373,1,1,16.474858526159608
241,241,2.4874653156231386,3.6511046361759334,1,1,7.475106942390281
242,242,1.8199865608436228,0.0,1,N/A,16.891893658556636
243,243,1.2426623814345406,6.703613024595128,1,1,15.155384973916139
244,244,7.521385225204137,6.02875332963701,1,1,13.777580757355876
245,245,8.445172953372476,3.905472224692729,1,1,22.380453103785186
246,246,8.664079565958634,9.486699385335417,1,1,18.791307737068074
247,247,6.191215604141741,4.713308833984064,1,1,21.425447061725777
248,248,0.03477262028529604,5.154865483951485,1,1,8.113967952041858
249,249,4.986531456776605,0.0,1,N/A,20.01030308642212
250,250,3.314585392297703,7.2959359760578115,1,1,17.005789876334468
251,251,2.426803255983816,8.507667869400121,1,1,21.189309099480113
252,252,2.9521151005560107,0.348482084916939,1,1,17.030880620361167
253,253,3.784601531082151,2.864725129760093,1,1,7.540454717145524
254,254,9.562771051224221,4.094869276084276,1,1,22.321805855551
255,255,1.4737121087201188,0.5805880330667412,1,1,13.131816954053825
256,256,6.470976824582694,0.0,1,N/A,17.683873644554954
257,257,7.1500818222092075,1.0600965000764129,1,1,22.80369089012829
258,258,4.363314777649261,7.476314364518091,1,1,11.983738631098547
259,259,5.918371746441999,6.435599752145167,1,1,14.948682861045612
260,260,8.308987137487346,7.020986907421216,1,1,21.106501402889236
261,261,9.423896191739736,0.1898179563323832,1,1,23.028745015256092
262,262,9.0153137024199,0.0,1,N/A,11.216086850779265
263,263,0.1578760809226043,4.861297213619298,1,1,13.245532343508936
264,264,1.7091549406260353,0.0,1,N/A,22.03359298763398
265,265,8.897865576248256,5.001021511333286,1,1,22.48740298776068
266,266,8.18066903898096,0.0,1,N/A,14.61318069876154
267,267,4.245921274023166,8.511333906781942,1,1,15.906389689475173
268,268,9.895727089190958,4.0750110055322555,1,1,21.559377935626806
269,269,0.37595899912957864,8.846695818460729,1,1,19.09550824124433
270,270,3.4390253890571776,6.373507576515546,1,1,14.693007096915798
271,271,8.006671249095238,9.262036077772859,1,1,20.717495766224154
272,272,1.2325166507732188,5.145143039223034,1,1,11.1365157161771
273,273,5.725118527219239,8.474882975594362,1,1,21.693982497560498
274,274,0.9156936180607933,5.672669403267977,1,1,18.00161862275388
275,275,8.313260358158505,6.324589051951319,1,1,21.08012837742952
276,276,2.3794473340970788,6.461011648215775,1,1,16.532219106762568
277,277,4.722208717331337,3.8900263737128835,1,1,18.434963699531906
278,278,0.26388511117644065,1.332328825274025,1,1,11.95825564729761
279,279,0.7116716092189757,0.3181921189853254,1,1,15.711361324557217
280,280,0.9198651385335033,6.0958413809510095,1,1,21.962984772770454
281,281,3.6282103979170244,6.908039836293364,1,1,17.981055513728535
282,282,3.1405132751061346,2.873113470054691,1,1,10.516089087438704
283,283,8.49818017502715,1.4284179919006668,1,1,13.678385978505382
284,284,5.961386156760438,4.081893631681288,1,1,19.725711606016418
285,285,0.31578931206770133,0.9584648768684922,1,1,2.9924642092570632
286,286,0.688684909103342,2.1918148455276345,1,1,12.415189511077811
287,287,8.864434696071442,0.6379589969851618,1,1,14.503218792065358
288,288,9.040449176463682,2.6988678073060077,1,1,13.995359955761039
289,289,2.6091227416122154,8.745189176443484,1,1,15.447060032439587
290,290,2.096792329953625,1.8018153791173963,1,1,6.934898559797615
291,291,3.592460684952848,9.337672377992577,1,1,20.227695754090124
292,292,7.375665823516612,5.645410744276752,1,1,21.239576415272367
293,293,4.368879700671035,1.5567351786889327,1,1,14.3946769013837
294,294,8.190594059237657,3.625604083667129,1,1,12.623893943816787
295,295,1.0060893643560387,1.2907064340439234,1,1,22.963317816111623
296,296,7.54493330776039,7.259256607701542,1,1,23.592952441219325
297,297,6.3316788007086,7.99101390453682,1,1,15.831854260467503
298,298,2.5179234765446368,7.317243773452376,1,1,19.117374487210505
299,299,9.746885517401338,0.5752465531522766,1,1,20.17016835037605
300,300,7.8730970569976675,0.0,1,N/A,19.91307266447498
301,301,3.814314534382995,0.8804707159918912,1,1,20.684689123952772
302,302,9.361555265161353,9.447542535807472,1,1,22.609635178959948
303,303,1.2728412588918758,3.87373822176765,1,1,23.242731372905713
304,304,5.647466254418987,9.402500227895244,1,1,17.077414545460456
305,305,2.8526319314936166,0.0,1,N/A,23.332256867087494
306,306,1.303470093219351,6.5716029613708375,1,1,8.560865706271898
307,307,3.9453173606044145,4.333172704008339,1,1,15.342191321966936
308,308,9.327037940686191,2.975252848143878,1,1,17.475496821567543
