,Job ID,Stage-1 Processing Time,Stage-2 Processing Time,Stage-1 Machines,Stage-2 Machines,Due Time
1,1,4.3255558069472,9.03302709179447,1,1,22.570692922947913
2,2,2.5810018441471403,1.1244651169997943,1,1,8.939557221507071
3,3,3.872750584723361,1.5225170206133753,1,1,9.533030505037324
4,4,1.15187330365069,1.2312729641801068,1,1,21.476075947029955
5,5,2.648463095912682,5.887023817302161,1,1,21.844567449880785
6,6,6.03612942546064,0.15246865163711099,1,1,10.511076985875583
7,7,0.5050640430598896,9.676992464325187,1,1,14.089453637976339
8,8,9.277023595153818,0.11225093347947523,1,1,11.778257327357736
9,9,4.062956512231352,1.939685668097283,1,1,22.396681923077853
10,10,9.55991524216,6.47227833429379,1,1,21.64167523112286
11,11,8.354016186489815,1.2323904200828406,1,1,16.876175195748736
12,12,9.04674019617174,2.7056301739330224,1,1,13.120533033359115
13,13,8.404201518248353,7.58834770571193,1,1,16.45170821435156
14,14,5.892889592458119,0.0,1,N/A,21.44245319280833
15,15,5.4691925230730085,8.38001157165969,1,1,18.23562875618229
16,16,7.642490124209139,4.842456498237269,1,1,17.634495932194366
17,17,5.879131171305755,0.0,1,N/A,13.521934660685927
18,18,1.6790765043515188,7.748271866134432,1,1,16.47182783851926
19,19,1.0056655584610297,1.8553772842851046,1,1,11.943812094587514
20,20,9.408750162710033,0.0,1,N/A,20.607161145426694
21,21,0.5109630054912973,6.988668646935075,1,1,13.300114470974806
22,22,8.409199750096844,1.423113438147715,1,1,12.231167588390674
23,23,9.628432579999739,4.9265396897633895,1,1,19.776032321143305
24,24,7.176805312592023,6.528895615025215,1,1,17.106246000692632
25,25,6.020859316277965,4.2366997376815405,1,1,18.273112310815904
26,26,9.331368988790746,2.470737011567188,1,1,16.21619389995405
27,27,9.903480786894853,4.729401719375144,1,1,19.662704497441666
28,28,6.317243207563344,6.763591465099638,1,1,20.452718914271966
29,29,2.126150869460962,6.609982495263047,1,1,16.522383123513073
30,30,9.286446106236287,1.2536853716500873,1,1,21.74618580376326
31,31,2.538467086749426,9.969111982637406,1,1,19.231702668339487
32,32,2.6258755851070923,3.0250608850899017,1,1,5.737786707710158
33,33,1.2822311930951302,1.8164662994820324,1,1,23.704733499415244
34,34,0.26562298321983646,0.0,1,N/A,16.24646064521953
35,35,9.830733585519681,6.272558772327069,1,1,17.987368118288217
36,36,5.04366210858956,1.9900237670641652,1,1,18.916326715466788
37,37,5.135965558708559,9.253219298697848,1,1,17.166322481220135
38,38,3.620983456597211,9.283255371509874,1,1,21.276460525311293
39,39,3.7601827180442173,6.115039333155559,1,1,19.32057029425081
40,40,1.7931890023005426,0.34824738425581314,1,1,16.173127720920796
41,41,4.8542392599812265,9.192091014020455,1,1,15.23346873730176
42,42,7.710051143518928,1.5901030192616172,1,1,16.355076955219936
43,43,5.348980678142066,2.4502796356972434,1,1,13.360974723957119
44,44,3.7440982995729053,0.07871753310782714,1,1,16.407393011154277
45,45,6.659765972784159,0.0,1,N/A,14.586689399736281
46,46,9.242854538662055,9.994507493994986,1,1,22.85152596811779
47,47,4.5852185660261355,0.0,1,N/A,11.687401626996422
48,48,5.2444958522490035,2.9967230965610394,1,1,21.18370303374202
49,49,5.275133939228949,2.5166357905967027,1,1,23.05124281267328
50,50,1.4553324260253087,8.258904396742894,1,1,13.828491697654457
51,51,5.729183404991937,0.0,1,N/A,14.539160944841127
52,52,0.354918952310328,2.1144453515937967,1,1,8.852331347556884
53,53,8.006185888016455,8.447003174459585,1,1,19.858465947703984
54,54,6.721738291317678,1.9338517866727811,1,1,9.456241930851338
55,55,6.156525897801942,0.0,1,N/A,12.839406532045095
56,56,1.7478113804940276,7.895473795827032,1,1,15.227796640238196
57,57,1.860272672200366,1.6705939037303275,1,1,15.625962827892778
58,58,7.855138300424805,8.194311277417896,1,1,23.380902989746133
59,59,5.4582582340516925,4.3166197019136785,1,1,18.765189235920133
60,60,1.2849505707856956,4.005792658587688,1,1,23.04360825837869
61,61,9.45127075911052,5.569406354376857,1,1,22.89129408875007
62,62,7.757159196097179,5.750858495675196,1,1,21.85891424538989
63,63,9.491269526823459,2.1793969352954843,1,1,19.79365232195929
64,64,4.115981034203417,0.0,1,N/A,13.887056967264549
65,65,4.53401558043616,7.023509550003078,1,1,11.90603267587887
66,66,2.977228645825525,6.24304368105979,1,1,11.125963285328169
67,67,3.9342437723739776,3.4180207180316655,1,1,9.700410890753039
68,68,5.382068036398017,4.876322850880546,1,1,16.446434775101526
69,69,4.708844733921986,0.0,1,N/A,22.04135130363374
70,70,0.6060699204883446,0.0,1,N/A,16.381909231694706
71,71,9.636755408575207,5.501934465439252,1,1,20.385052206366687
72,72,7.224032662636748,7.880176309043766,1,1,20.3374003374417
73,73,2.827211726300838,0.0,1,N/A,15.42850328608619
74,74,6.960333290274274,6.991182378890807,1,1,21.654155403374688
75,75,9.179419931792888,0.0,1,N/A,9.726098866990066
76,76,0.810255878190218,6.961657131667395,1,1,22.53839641656837
77,77,6.2000049089390386,0.0,1,N/A,16.96514234691173
78,78,2.0009652593401284,9.625612113316253,1,1,18.281838785184036
79,79,0.19841117729464286,9.209046144053865,1,1,11.645335799979964
80,80,3.354485539515254,7.115286331825392,1,1,11.48763156500651
81,81,3.8654869018517424,4.862846757724916,1,1,11.45692883349459
82,82,0.11427091239315401,7.273118391502473,1,1,23.397486946723536
83,83,7.705517781762017,1.1224193013238293,1,1,23.214668410539016
84,84,3.08697415709023,0.0,1,N/A,22.383838754542666
85,85,3.539088734389856,6.753230604816066,1,1,16.545994196351486
86,86,5.222192634456881,8.280442930862302,1,1,18.478449072280824
87,87,0.004065170011651187,9.620380043045683,1,1,16.49801169041704
88,88,1.706279495414088,8.980157997893647,1,1,23.796036485871863
89,89,1.5798067441569519,0.0,1,N/A,17.686621935860273
90,90,4.597419592522407,7.703521344336629,1,1,14.134619683036393
91,91,6.222138667919774,1.588724539004589,1,1,11.019929926364824
92,92,2.15202147045931,3.630652096423553,1,1,10.11095861448041
93,93,6.8306673162433125,7.108485771281322,1,1,23.95118234146947
94,94,9.334663512150193,0.0,1,N/A,17.969189473892676
95,95,9.102663140666618,2.230998298271467,1,1,14.909665358147324
96,96,2.224919882678702,0.0,1,N/A,13.71550062882783
97,97,2.5375644746415924,0.0,1,N/A,17.511175959430574
98,98,4.531789422195397,3.748881884771742,1,1,13.210132228477926
99,99,1.9687111529098644,0.2347755324084988,1,1,7.940386031221758
100,100,1.984743511101551,0.0,1,N/A,9.478312510046212
101,101,1.6939435619430332,0.9094429353318345,1,1,7.453170069309676
102,102,7.299966380579653,0.0,1,N/A,18.394571118577424
103,103,8.33313436060506,3.8606819939736683,1,1,14.082822537967939
104,104,8.026859534809766,5.9720837349109015,1,1,19.000594182054577
105,105,1.5025641689157199,0.0,1,N/A,18.364170993576
106,106,2.7366156015803345,5.969593534010487,1,1,14.800047061509296
107,107,0.014908901065555646,3.625898454124971,1,1,16.85433150064342
108,108,1.531778262772432,5.3897233495755446,1,1,21.350971168219765
109,109,6.128377216375767,1.4585604252910545,1,1,16.523076929790093
110,110,2.5305317672089522,7.283129138667379,1,1,21.099846648223078
111,111,9.769279709168295,0.0,1,N/A,22.035088005918233
112,112,0.11832922458685169,3.03201609918243,1,1,11.65053060006817
113,113,1.9857180521679918,4.863647861762917,1,1,8.946055640625268
114,114,7.707027031017479,0.0,1,N/A,21.834338073200353
115,115,7.536047504881801,1.7176576173366098,1,1,23.833258685637304
116,116,7.027013752997462,8.829940366505216,1,1,19.41968100287167
117,117,6.151121888997241,5.899052532674768,1,1,18.88878241071135
118,118,5.0644085736179,8.239101422058914,1,1,14.91032494148824
119,119,8.326369945410223,1.7743962875709196,1,1,23.76381480979946
120,120,7.338822297664765,2.878994035994137,1,1,20.4500539217738
121,121,1.1227156822805262,2.5681886922388566,1,1,4.5343607812284965
122,122,3.1944742674717186,5.6999664112948425,1,1,14.899357028520217
123,123,7.376822889989471,8.741160300875993,1,1,17.887609839361577
124,124,2.2909976198146955,3.810276052537941,1,1,12.072346983931418
125,125,0.06865932728473023,6.216374724788758,1,1,13.540992464577727
126,126,5.992012519331356,5.226073768211044,1,1,13.94097919810232
127,127,4.311832224074605,0.0,1,N/A,23.670182861836153
128,128,2.36623803303577,2.0262641291678207,1,1,7.692899287344617
129,129,5.676708232602131,4.623494885135331,1,1,21.615087132060257
130,130,4.73239764660055,1.4596247746906355,1,1,8.819343671635325
131,131,2.8436087102452303,4.358179350030681,1,1,11.922333950463479
132,132,5.674686421851498,3.703730906892684,1,1,10.694655231722122
133,133,4.837880650171735,9.509118620918867,1,1,15.771840545630162
134,134,5.921207266289953,9.072353767738267,1,1,23.61020160178341
135,135,2.6966907749900737,0.9832467432897962,1,1,20.78511917069132
136,136,2.379482945613444,5.2257311222073,1,1,21.209971712149343
137,137,8.2573291204835,7.797792636435627,1,1,16.920171248803733
138,138,3.2355926004099302,8.793472947283048,1,1,17.05263955202907
139,139,0.5758016550088185,0.0,1,N/A,14.483526072427964
140,140,5.957827731295828,0.0,1,N/A,15.974777185540274
141,141,4.026067956239018,5.916483479562734,1,1,11.32748892303072
142,142,4.426788883063296,4.672220376004644,1,1,23.14431649319265
143,143,3.1893234573192952,3.8290508915265864,1,1,17.337359887316687
144,144,2.573566892946414,1.1147398371667983,1,1,6.266144557501522
145,145,9.324146051176525,0.23381604199389172,1,1,14.74743132917794
146,146,3.7364106420008794,6.307369263400071,1,1,16.404623419399922
147,147,3.8152931146226265,8.633526533167391,1,1,14.653928510192312
148,148,4.8989181892419005,2.000157963490994,1,1,12.904141315670488
149,149,2.2531012708524365,9.819016649749516,1,1,12.134643837722141
150,150,7.9091881777517345,4.274450330272057,1,1,18.353885282831797
151,151,9.276477473015053,3.853249252574847,1,1,16.346523353085885
152,152,8.290958549293627,7.380899398926328,1,1,16.13766210098112
153,153,7.282860219388773,3.328083829416869,1,1,12.633074011318117
154,154,8.634464915891598,5.253224200196797,1,1,14.034407158048989
155,155,1.706324738059971,3.45155053719186,1,1,17.465072317631478
156,156,4.816794031892116,8.968000973722862,1,1,21.032312276973244
157,157,8.417116268558189,6.443702899953799,1,1,19.35548140059795
158,158,9.117667097595243,8.36892908870036,1,1,19.024294015875807
159,159,5.699943248105418,2.4753265230363164,1,1,14.848881352840966
160,160,3.078479066318188,1.385831393821374,1,1,15.131496072293782
161,161,4.284762350786009,8.310109715428307,1,1,13.677101852300627
162,162,3.692895623113227,9.24874870974942,1,1,16.20955980714935
163,163,8.434783685987245,5.529744797271822,1,1,14.729850366861053
164,164,7.557276068530248,0.0,1,N/A,11.335061096726724
165,165,2.536191465877166,9.08822255166427,1,1,21.71642631680166
166,166,0.6025597108506087,8.993652616449767,1,1,21.229919768048056
167,167,9.812141805131343,0.0,1,N/A,12.34296001037315
168,168,7.37115072921403,5.745637694029263,1,1,13.437543815959554
169,169,7.1998011866693,0.0,1,N/A,18.775447776405613
170,170,4.278934290640263,8.50804285769878,1,1,21.527662573063616
171,171,3.4961347930435984,5.766136018103914,1,1,15.416142003336466
172,172,4.946792306736841,0.0,1,N/A,17.804575725121225
173,173,0.2899941673201456,9.556989163736933,1,1,21.064054550858337
174,174,5.071188436936497,3.1767786740700323,1,1,20.877159630647274
175,175,9.406737202964642,0.8334107800994783,1,1,17.937197968628194
176,176,0.13955047230771012,0.0,1,N/A,15.389430556301814
177,177,4.199347209527645,7.266466699443788,1,1,17.954989938113354
178,178,4.255987522611372,9.560360691842943,1,1,15.55989386170668
179,179,4.710798225210383,0.0,1,N/A,22.946824229082925
180,180,7.343951511448694,4.125924344052754,1,1,15.503010174622712
181,181,6.568994003386726,8.104097253201473,1,1,23.508749731655747
182,182,1.8145510802333187,2.1965345389916524,1,1,13.458009910825972
183,183,1.6873194501947164,7.99495855369236,1,1,15.879617438858707
184,184,6.975653268256483,4.505518847895351,1,1,15.298779764314029
185,185,0.721381533501857,8.722733216090152,1,1,16.26378291640725
186,186,2.2631271363091097,4.962594460911537,1,1,22.302195402591906
187,187,8.099043642768692,1.2634342932769416,1,1,10.952440893537794
188,188,6.820007996244265,3.533289512809239,1,1,11.570099829263873
189,189,9.136641105952943,0.0,1,N/A,11.71265172505895
190,190,9.92407020529078,0.0,1,N/A,13.034713114058285
191,191,7.641937148782673,9.282037586813573,1,1,23.26642037682091
192,192,7.255757947044886,5.834005890201651,1,1,14.308257835360385
193,193,2.675204502003149,2.9602814756504294,1,1,8.188170872718722
194,194,9.24673230051764,5.722706346608034,1,1,19.18979087457652
195,195,5.562479858904972,4.61741053968508,1,1,15.931156324309228
196,196,3.347941802028207,3.2532459510693243,1,1,16.375957474049272
197,197,4.086059256725582,5.229429625263443,1,1,14.510705748003442
198,198,2.4263643232420593,8.04678141702874,1,1,19.084733180846342
199,199,2.3448351678864454,4.526504573851233,1,1,13.842561611150215
200,200,8.077949787177635,1.9121234984489077,1,1,17.9748932928019
201,201,2.4657004424148656,0.0,1,N/A,14.649783760410655
202,202,4.527547511035159,0.6204503547787388,1,1,23.845669827922787
203,203,3.380656250132014,3.277148015840965,1,1,17.6801587443735
204,204,4.913305040507771,5.1536479603942915,1,1,23.738029520677095
205,205,8.811005134523352,5.423565943512385,1,1,14.546463325603902
206,206,6.372594507985046,5.660109523595981,1,1,14.154342922193782
207,207,0.6286873457661046,9.095939407805343,1,1,14.111316075924549
208,208,6.971383610307184,0.0,1,N/A,17.375935012834482
209,209,2.3623644251683276,1.659051303619563,1,1,8.576115776842649
210,210,1.474933495077183,0.0,1,N/A,6.393830635991309
211,211,2.1956590377867924,8.855014590626965,1,1,16.77200879554713
212,212,1.022280391655982,4.78270206491473,1,1,10.254911569291469
213,213,8.019320436314912,0.19912751389216443,1,1,11.302742368437581
214,214,7.81018908207773,0.0,1,N/A,20.25603200582117
215,215,3.3850966937040337,0.0,1,N/A,10.851108454554737
216,216,4.6721455325576144,9.798665184789934,1,1,19.462370008612144
217,217,6.483666670039414,4.548997717793942,1,1,12.591642022360347
218,218,1.6952513803070668,2.1682631154214738,1,1,20.603540983104107
219,219,6.257072828892415,9.395140160175718,1,1,16.28908688339494
220,220,2.346908182493693,8.781878869968537,1,1,12.037416140361058
221,221,6.831829907866132,0.022381199802039564,1,1,16.08823130404967
222,222,2.9498928792986856,1.4645960323887286,1,1,9.508361241877981
223,223,3.817892378375726,4.3067228062205025,1,1,10.937563164569863
224,224,9.872510133858261,0.0,1,N/A,19.642710131915962
225,225,6.4627904428366065,0.0,1,N/A,16.76110285044759
226,226,2.6355798943782585,0.0,1,N/A,11.685055247026266
227,227,4.0297474519242735,3.8594679132898424,1,1,9.675806466517498
228,228,1.1892528034621097,7.897866891240893,1,1,11.933416891904212
229,229,0.7060456928683412,6.774060801871922,1,1,9.715563934398926
230,230,3.6500428668608875,4.998599054901646,1,1,21.088963060745677
231,231,9.976282492609819,7.203634822870239,1,1,17.64755861816624
232,232,8.787702135838767,0.0,1,N/A,23.53368476984719
233,233,7.608302636518306,2.35287693258568,1,1,11.338345563427065
234,234,8.626581584341569,6.129329525444883,1,1,23.811097291948222
235,235,5.679096217383991,1.9896584292578179,1,1,13.851114145118212
236,236,1.5473160884505255,0.0,1,N/A,13.596313276725418
237,237,0.6146826040065057,7.998804006901859,1,1,12.428415475172239
238,238,8.05574687107047,0.0,1,N/A,16.5135581358422
239,239,6.114961404546734,1.415516275283658,1,1,8.920643165670961
240,240,4.871312389120909,9.290512488943016,1,1,23.197096606675558
241,241,8.321943391697637,0.0,1,N/A,18.276126330947616
242,242,0.2231038847867728,9.288230552044274,1,1,13.130045214960825
243,243,6.393713450012014,6.759396756167324,1,1,23.192443546158337
244,244,4.594578706416991,9.620191735698215,1,1,23.510328905796683
245,245,3.6734046462804013,7.684180204667016,1,1,15.821628201089379
246,246,9.184935575956276,9.819580474553627,1,1,23.46586198365012
247,247,1.7470257184180737,0.41409672789381347,1,1,14.287655040486493
248,248,2.125711097008721,5.8847595237396835,1,1,10.414775133362163
249,249,7.299637863400193,4.016474069183973,1,1,19.647566366111178
250,250,9.624328200395995,8.903590082434732,1,1,22.138768098521904
251,251,3.934982869259808,8.656726971157052,1,1,20.71095947833883
252,252,9.54104027773525,3.6105788467243816,1,1,19.739886602416576
253,253,0.6657740109842014,4.941823357185928,1,1,15.558422093040832
254,254,9.65406388778622,3.474510717956015,1,1,14.284188702104933
255,255,1.046864341797109,0.3898146479554765,1,1,23.16792034261154
256,256,8.976105181179786,0.0,1,N/A,23.065578649849037
257,257,8.551096646171354,2.0340750773058436,1,1,21.293453724793075
258,258,3.7323597507739095,0.8155069714926733,1,1,4.6787185688467305
259,259,8.853370089082002,2.4994015543898387,1,1,13.74622259741942
260,260,1.9352729066433982,0.0,1,N/A,18.13204504838189
261,261,6.5187872851856135,5.610950432264829,1,1,18.752535967153243
262,262,9.75369182807739,6.336820905878167,1,1,18.765908464839296
263,263,1.007560667981099,7.113150262017083,1,1,18.157912641843946
264,264,2.05428364648741,0.0,1,N/A,17.72461054026886
265,265,1.4263435670359081,8.15347541313912,1,1,17.51042492471724
266,266,1.541756979504998,3.8689488517269846,1,1,5.764179275138094
267,267,2.776997027213408,0.0,1,N/A,23.42463847792308
268,268,0.11150968530351135,9.460902784122935,1,1,16.97343458685073
269,269,1.6378426785318279,6.702449975220242,1,1,15.320303444974293
270,270,5.733470917738175,3.2112101760494847,1,1,13.23987562046758
271,271,5.673741091952776,2.096797459265428,1,1,22.376548630035266
272,272,9.350131591117988,4.900313261681718,1,1,22.50206653352565
273,273,3.4330862362650763,2.1248048215454283,1,1,23.695043442650935
274,274,4.280374301922735,4.465509594643084,1,1,11.46184917027998
275,275,2.434638935642143,0.0,1,N/A,17.09152457894273
276,276,6.36716222024047,2.4395070929967275,1,1,13.525277108857146
277,277,7.772911911358237,2.4580085787953374,1,1,18.509077818922496
278,278,0.13524489723649502,9.356324016392705,1,1,11.720654241409775
279,279,5.769657760002622,9.664653076652087,1,1,16.155623105762448
280,280,5.6783108200466845,4.412736803442707,1,1,10.387830329748716
281,281,3.887015464289475,1.7625886424674164,1,1,16.645855070042053
282,282,9.610855771289971,6.547285733032357,1,1,20.627731778076114
283,283,7.424156545909728,0.0,1,N/A,22.78093837921366
284,284,7.987535865949459,1.5642002536870736,1,1,19.984847826912453
285,285,2.795720446477609,4.765531153560659,1,1,7.783128934124713
286,286,4.1824817037243465,7.03208802858838,1,1,15.733643236456809
287,287,8.790288802069963,6.587156292685186,1,1,18.338680646699032
288,288,1.228046374113202,3.871557786106764,1,1,22.990010987188054
289,289,7.5998041585797775,1.9596781031837196,1,1,16.707142386139232
290,290,4.219355648066278,9.745371002510307,1,1,22.925005380107248
291,291,5.278864658131282,4.074037719893759,1,1,20.248560208748838
292,292,2.970444440392016,2.250604844988459,1,1,8.289498370562933
293,293,0.7454163331693731,6.934062240494569,1,1,19.151639241329327
294,294,9.177142198861157,4.709469110668692,1,1,23.395568629326185
295,295,6.442815271292378,1.0829551583750174,1,1,23.028949598366754
296,296,3.297704369738219,6.007641544197596,1,1,18.114073465236547
297,297,1.0435219975297438,5.221124395219094,1,1,21.75706271645874
298,298,8.448186949815497,0.0,1,N/A,22.777179620492422
299,299,6.432140460098977,2.0115881000258717,1,1,22.694295832729672
300,300,9.407393483511319,0.6796534881016747,1,1,15.043343290798115
301,301,5.3246622813002,0.0,1,N/A,18.285454613242152
302,302,9.703940069792726,0.1262193602456141,1,1,10.817293444365946
303,303,3.8059307080460747,4.381709770255933,1,1,23.975606135388023
304,304,0.585594680860736,1.6448747956770682,1,1,3.941835411301404
305,305,4.886649350136097,0.0,1,N/A,19.845919249672807
306,306,1.7716315796236615,9.972470636847028,1,1,21.23643036972986
307,307,9.903849862487924,5.395929864907329,1,1,20.710874700149084
308,308,8.82010660913742,6.701125934620176,1,1,19.03102646351603
309,309,3.432424122794618,4.372131976312183,1,1,22.841064714737698
