,Job ID,Stage-1 Processing Time,Stage-2 Processing Time,Stage-1 Machines,Stage-2 Machines,Due Time
1,1,1.6709525735541697,0.6025553067123013,1,1,20.115443805406155
2,2,8.281459094430781,2.305707694847585,1,1,21.09361564052606
3,3,6.275871136129717,4.483605702443927,1,1,15.052263875781343
4,4,6.947742029476849,7.616239963484803,1,1,21.92483979158308
5,5,4.475060791224336,0.5347181796893441,1,1,9.136667775015448
6,6,1.4813043380542268,9.327687785896513,1,1,11.57292912299039
7,7,3.192317269147793,7.835206620630974,1,1,23.240125844309247
8,8,3.034450676041829,0.0,1,N/A,9.417982736471945
9,9,8.762054870874527,0.0,1,N/A,22.54076794016212
10,10,9.487324365057464,3.4285822657933993,1,1,22.929250500392662
11,11,9.588105246758357,0.0,1,N/A,21.963810201124502
12,12,9.59947766342496,0.6450987196792068,1,1,12.572221653636728
13,13,0.3154964073564315,6.061058471301965,1,1,23.274099327055502
14,14,8.727957991987271,4.651042957476664,1,1,16.70796647800463
15,15,6.856189566183816,2.113610392217261,1,1,18.887343262884585
16,16,3.349384035847528,8.28673317451354,1,1,21.20646520489114
17,17,0.8897416527796065,7.173962048923021,1,1,18.218358516028573
18,18,7.194859520601474,1.050737167326674,1,1,16.86729090937581
19,19,6.071694374915785,0.0,1,N/A,15.778457079681424
20,20,7.844873972646159,3.8511512946679485,1,1,22.24198712702743
21,21,9.61194946990108,5.64928817761591,1,1,16.002065464777274
22,22,9.367640750160898,9.97611185147879,1,1,21.40244308270921
23,23,7.700498083468413,4.177271467954467,1,1,22.138088697237524
24,24,9.577051846277625,1.1264504355096217,1,1,14.557562709749725
25,25,6.544976655002226,0.0,1,N/A,11.241208982220112
26,26,1.2535933878003824,2.240485838992158,1,1,15.088294797951477
27,27,1.3115712672331203,4.83257829859283,1,1,18.057813568226738
28,28,0.7629116672817349,0.0,1,N/A,10.71148273592455
29,29,6.4673487228230435,1.9551604345526474,1,1,21.174261360243456
30,30,8.287267283740078,6.602923352518114,1,1,17.60244121509975
31,31,3.9664141340165604,0.970797523597764,1,1,16.32546739038422
32,32,3.4488158814705883,8.160785889028894,1,1,18.28841885607529
33,33,4.669000333019397,4.381041890976121,1,1,22.134272336089204
34,34,5.238125634710085,8.192559172361436,1,1,20.38344135987103
35,35,5.242071550705351,0.0,1,N/A,18.2599292594969
36,36,4.086988319174046,4.528357588969144,1,1,17.743093586634163
37,37,3.738982528786925,9.210169460428618,1,1,22.117998516262634
38,38,9.1331861289655,0.0,1,N/A,21.176709099774925
39,39,0.6521585779675376,5.7032143301770555,1,1,10.308148606573955
40,40,5.829368801874591,7.568222428380099,1,1,17.051472687608168
41,41,5.808711416286046,4.208393660861473,1,1,22.512451924424674
42,42,2.454738412014069,2.228990198033105,1,1,18.88644710236798
43,43,2.7591300487824455,6.934338906298728,1,1,21.929406516795197
44,44,9.535034939832766,9.861070275894962,1,1,23.313413301323564
45,45,6.28228642882544,6.7740239534172675,1,1,15.750214163345706
46,46,5.724182552642224,0.8212646890315556,1,1,12.000834178156737
47,47,3.1036334508526577,0.0,1,N/A,20.84747075620134
48,48,6.670556451935678,6.537910398100891,1,1,20.82323371214976
49,49,5.815901085103635,0.7262870196758386,1,1,12.712802333389497
50,50,7.232497971072957,3.887676204196191,1,1,22.367709319491816
51,51,4.402900308256935,5.215920250209848,1,1,19.995228399899787
52,52,5.410564571382652,5.4310469521574785,1,1,12.812904183543703
53,53,3.0939226283561494,2.396402227471227,1,1,5.673343808333306
54,54,5.599146648946225,3.3335593007699926,1,1,21.12892173095279
55,55,5.320318601165589,7.962294262106243,1,1,20.09440261354137
56,56,3.5197793820188386,0.0,1,N/A,8.14226282171562
57,57,2.3269265822492944,3.4606329814237724,1,1,17.104727733832732
58,58,0.5872483176922272,4.367800095499423,1,1,7.911125488417315
59,59,4.609950217949004,4.509611855936537,1,1,10.678519597335889
60,60,5.12482782072158,0.0,1,N/A,12.834762809873288
61,61,7.619138834827531,4.479468414819914,1,1,17.822025031510417
62,62,1.6448766368442058,3.375337159652183,1,1,7.821166210853043
63,63,3.7576648595930715,0.907510243839359,1,1,16.6309165769578
64,64,5.1815758832957854,2.7143389691396957,1,1,9.23223007063059
65,65,3.9000502217877955,5.999248450269958,1,1,21.821688062537635
66,66,0.7867218301793855,7.626099403812945,1,1,19.555558342346373
67,67,2.8347562695918747,1.4266716318008266,1,1,5.915864493146418
68,68,4.871947304502688,2.580035932970748,1,1,13.7464646563433
69,69,9.193976102207863,7.583674870871774,1,1,16.90059389309767
70,70,2.4965295753862504,8.19170823906925,1,1,18.87589427717764
71,71,8.650569150661125,0.0,1,N/A,22.729758607570005
72,72,0.15559015526250497,5.848035223412673,1,1,21.00810311197611
73,73,7.199777957791556,6.466704954455828,1,1,22.36441412130027
74,74,1.171041934942203,0.7346468670186967,1,1,4.067901468117798
75,75,8.559229165990951,3.6069323548633117,1,1,21.687127712569037
76,76,8.680777006735168,3.276597659917291,1,1,19.181951502848953
77,77,5.740851820378411,0.2516357386011192,1,1,6.028275760682664
78,78,1.406754169447767,3.0350239262804024,1,1,18.760650873612686
79,79,1.9000693983632122,0.0,1,N/A,23.578692035592375
80,80,0.11714743476973544,8.253685291178554,1,1,15.244818359031694
81,81,8.935355570621216,4.441059058516698,1,1,19.611747736740597
82,82,4.035417314419501,0.0,1,N/A,22.73153874994816
83,83,1.0425674532946572,1.4935453923996023,1,1,21.966551095834237
84,84,1.8912779895990006,8.57903225671718,1,1,19.341282749909325
85,85,0.7855589479489855,1.7172633798334236,1,1,5.5315666612830245
86,86,9.51735773443382,7.315784512622734,1,1,21.955706654681787
87,87,5.831949495984263,6.895555114798166,1,1,17.13079711671675
88,88,5.245400910640559,3.218476958820081,1,1,16.08563536773858
89,89,2.5130482223856143,5.288435136221779,1,1,13.499978199165554
90,90,5.618403375800383,8.083574236562956,1,1,14.85164580870834
91,91,0.0008314328588021613,1.2856539876871786,1,1,2.642929842994894
92,92,9.740675379598782,2.26833288899107,1,1,23.156608009923247
93,93,9.222016727947514,4.461968200504706,1,1,21.790236073896846
94,94,2.7801349158332442,1.0666595007378998,1,1,9.355781309256468
95,95,0.6439431908363424,6.514726772857655,1,1,11.579946251097356
96,96,7.381677230120236,4.956892285219279,1,1,15.790860974763003
97,97,5.19678267191495,0.0,1,N/A,16.89156915082953
98,98,5.5693113056917865,1.0261508286917542,1,1,22.98022882724203
99,99,2.1994143458407134,3.711854290624502,1,1,6.551356467217622
100,100,8.048334178427204,9.472443838208141,1,1,22.48820182934838
101,101,5.62568548923076,9.01730814119065,1,1,15.772570770738003
102,102,0.7233102880305331,9.398950101396066,1,1,11.618076817128692
103,103,8.207759167432215,4.97028240759391,1,1,16.475408187491354
104,104,9.457251894715275,5.88733915876015,1,1,16.529411043343025
105,105,0.8288186654290264,0.0,1,N/A,10.24440061137467
106,106,7.4271590361496305,8.852962217135437,1,1,17.69982550134139
107,107,6.415340732099761,3.246162946047505,1,1,22.38667304805664
108,108,3.4230708052931638,2.2453078026387265,1,1,23.578320166565035
109,109,7.409289583242799,3.7012862677560454,1,1,12.57491733427192
110,110,9.628086940862426,4.932166550906838,1,1,18.073037976554595
111,111,7.8534240484033315,0.0,1,N/A,16.87754539228832
112,112,9.421370579826537,2.612399937073331,1,1,20.01799766899058
113,113,3.2670096349101154,2.041867245416852,1,1,11.540829747332557
114,114,7.158300011289246,0.0,1,N/A,12.182290164839646
115,115,7.057885021027643,0.0,1,N/A,17.833652448188204
116,116,8.633768548161015,3.754141839417512,1,1,21.126365143127863
117,117,3.4324534966929376,3.067361003501936,1,1,16.512643362101898
118,118,5.669809466658162,0.0,1,N/A,13.445060149135518
119,119,2.8269825827383466,0.6511979021390979,1,1,4.08706753183639
120,120,6.7779970625138795,5.882434358875615,1,1,18.22373116912011
121,121,4.161576538320362,8.161521166996039,1,1,15.348262235305393
122,122,3.247198789207534,4.7928876652938435,1,1,20.297884452920364
123,123,1.9268085383005884,2.0826067768622125,1,1,16.096365352811524
124,124,8.637466072049042,8.686641955447602,1,1,18.983407634251723
125,125,3.7730427414908174,7.316160186238815,1,1,21.16373636177403
126,126,9.867474152481034,0.29182564160445734,1,1,13.477302794304364
127,127,8.68610180210927,8.964538863005572,1,1,21.710632352610446
128,128,1.7025231698514698,8.762467105791728,1,1,10.800419773891608
129,129,7.260359018581866,5.20488178383904,1,1,23.433660283518623
130,130,3.2666696886651927,0.04194378190724879,1,1,22.240191459553802
131,131,7.806814405398938,1.790720726920484,1,1,10.293113434153671
132,132,8.767442346743756,0.0,1,N/A,16.894064550320202
133,133,1.1031417006948707,6.905215570751676,1,1,11.309518869023782
134,134,0.6137825547521325,3.1994458618092936,1,1,21.73309432427878
135,135,1.9006745163750438,8.948244537649455,1,1,17.63826313784873
136,136,0.5024942385546838,0.17134153009665698,1,1,14.387325874583247
137,137,0.1623678609941548,8.302535931440746,1,1,13.406937859224481
138,138,6.205682916565603,5.414957683833452,1,1,17.664780730779412
139,139,8.237323857601098,0.0,1,N/A,18.117672213787152
140,140,6.815833575083698,2.41736255894915,1,1,14.319649077350913
141,141,7.1520659969467895,4.978684665803602,1,1,14.764893800315946
142,142,0.7076308991560043,6.990170023673783,1,1,22.379392944279594
143,143,7.896510096648407,5.157768636424294,1,1,23.040590084059044
144,144,4.475102952352796,8.81672320828875,1,1,22.004472692302897
145,145,5.546558853606673,1.4650859844203967,1,1,20.458527461093926
146,146,1.1553149086916392,6.1022303166304495,1,1,13.679936941295725
147,147,6.482497030902367,7.496894837166068,1,1,21.55424676917197
148,148,3.6395648588276233,5.872451430333311,1,1,20.549855074970083
149,149,2.5771163977693723,6.390424355919627,1,1,14.000172494125799
150,150,9.386007935251532,5.635763213363061,1,1,21.128146297790586
151,151,1.0083392102740907,0.0,1,N/A,16.989024409448753
152,152,0.4359047944091021,4.684218234895634,1,1,20.697790539000586
153,153,5.4264496613197615,7.282343731895008,1,1,20.87498002623866
154,154,0.00484676561903763,2.9009733450952133,1,1,9.271619232411135
155,155,8.226516742285229,7.046463632983722,1,1,22.567528563973855
156,156,6.082430460372102,3.3226772912742564,1,1,18.91037327762608
157,157,1.0721850277430856,5.450181028346277,1,1,17.529083366310545
158,158,0.85122926883618,7.886334042684922,1,1,22.816582706162734
159,159,3.1469622955298715,4.028660724766779,1,1,10.993781950113739
160,160,6.516971776989747,3.3495112757403045,1,1,18.57846794911717
161,161,8.549108147831081,8.162868802444997,1,1,18.524915358572294
162,162,1.3693052218623192,1.7088371168242145,1,1,5.86141623673049
163,163,8.260933734869715,0.0,1,N/A,16.053892424506877
164,164,8.018133188685976,0.0,1,N/A,18.90278612183093
165,165,3.0868536856570907,6.665873731193985,1,1,20.949386866528137
166,166,5.509708327221646,0.0,1,N/A,19.68607672149201
167,167,8.012713184779741,1.0819530913313025,1,1,19.247413066251298
168,168,3.9481591762152735,2.5999444234540725,1,1,7.133628030117156
169,169,8.212181631605539,8.398390045955727,1,1,20.870854685287327
170,170,0.8360336516093159,0.9452513597262235,1,1,19.572666055484113
171,171,3.0593934833782743,8.735644955151997,1,1,16.899226362359116
172,172,1.9057259349713218,9.375985453673433,1,1,13.259585914367982
173,173,4.327200665471642,0.0,1,N/A,17.730452477798277
174,174,2.95678417619618,3.393990584445079,1,1,20.534131860712087
175,175,1.2023204951932787,5.525282918669792,1,1,20.85952147149019
176,176,3.2282732107437484,7.70000024735241,1,1,15.06517803849669
177,177,6.214755527473724,8.405751714034395,1,1,15.11566901733705
178,178,7.638033264458586,0.5713217836349072,1,1,17.912815922725713
179,179,7.706602619653848,0.0,1,N/A,23.39471068324421
180,180,2.053881912776686,1.4545836122653288,1,1,20.733026079368294
181,181,8.887043005568913,6.545381452367217,1,1,22.696427803302733
182,182,5.1414931440519585,3.1827710491417784,1,1,23.298331069168647
183,183,5.60682924590044,0.0,1,N/A,23.58335655494499
184,184,5.470862949413508,0.0,1,N/A,20.864988597402174
185,185,8.330579024428696,0.6456747867216472,1,1,18.055205096161206
186,186,0.18727657116156426,4.362664493519441,1,1,8.84109845194383
187,187,6.687034776512061,0.0,1,N/A,16.12566941404586
188,188,7.068587302889893,1.1346957864237184,1,1,13.627333929059859
189,189,8.128087526742867,2.7450722285630236,1,1,12.38064172343088
190,190,6.131572258066322,0.7446897933813212,1,1,18.317778537122713
191,191,9.628148329396321,0.0,1,N/A,21.633666874009176
192,192,0.745870717154784,7.910069650722455,1,1,10.843403941324603
193,193,2.8137890771967147,0.0,1,N/A,19.179786944475666
194,194,9.179524953181199,5.9637964617765915,1,1,17.668295571278787
195,195,2.6075199510621703,0.0,1,N/A,11.305196190986724
196,196,9.194072512619279,4.895554020374604,1,1,17.889275868746303
197,197,6.028260634936233,8.272825617481159,1,1,18.789407040715517
198,198,9.25017368261336,7.277034071449853,1,1,20.627499780654933
199,199,1.864338955893935,0.0,1,N/A,14.483779740655871
200,200,4.000450662376457,2.6337577164988204,1,1,9.721461236257493
201,201,4.29035990651352,0.0,1,N/A,18.0110402817135
202,202,6.740117635639296,6.051456376895805,1,1,23.814673064611497
203,203,3.6107454368218916,5.5066938022681855,1,1,23.030902773139438
204,204,6.429954946876375,7.256246180583653,1,1,22.18318509436299
205,205,9.166957342697854,5.682412765359945,1,1,20.643925468008728
206,206,1.214189659963688,3.412254851096729,1,1,18.43514140049436
207,207,7.529884326059541,1.9673071858903668,1,1,12.63684463303388
208,208,1.540920272718982,0.3660015468562905,1,1,12.087474119630166
209,209,0.9265055111597942,4.624553388886573,1,1,9.363717529126756
210,210,7.626108715727472,2.6166748655704977,1,1,23.19711960101307
211,211,8.447884823460294,7.382789969547694,1,1,23.179006709039786
212,212,4.886204583882608,0.17001772541734517,1,1,16.97261825292455
213,213,6.106050733757778,8.238900839456855,1,1,15.411094260756496
214,214,0.8956377443431607,1.7543177165916868,1,1,2.7866179356070253
215,215,6.942608137699854,6.238539862904162,1,1,14.898187630935723
216,216,1.5992861965567962,9.853700920394092,1,1,18.203953257656018
217,217,0.17923693048971234,9.575582716619989,1,1,22.134964267298738
218,218,8.08921094892072,0.0,1,N/A,17.795331028172512
219,219,8.771355339793365,0.0,1,N/A,15.994197526008154
220,220,7.125804534682504,3.0442332119085878,1,1,18.332470153614977
221,221,9.460602551505263,9.68102071013773,1,1,20.951175412502124
222,222,9.341410141738692,3.9382410943628585,1,1,20.101112853432397
223,223,4.695524245854177,6.173251535749134,1,1,22.008756948077192
224,224,6.385506359395893,3.9080236544018554,1,1,19.790415880584757
225,225,9.132324004589027,3.4779287218961406,1,1,14.473613407012184
226,226,9.866095981457798,3.7792837092683627,1,1,20.484012155181933
227,227,5.463782043022373,2.5199834862979262,1,1,10.987227346463813
228,228,5.098046716269055,8.303817406842608,1,1,21.23863033398306
229,229,8.839962379717933,0.5725748935406116,1,1,16.4015137529656
230,230,1.7676529764665727,4.116454475191009,1,1,12.52595173697462
231,231,9.928411919535293,0.0,1,N/A,19.413779495315616
232,232,0.7288535426943854,2.5607452403329765,1,1,19.815403611419576
233,233,4.574455640778835,6.651946713610122,1,1,17.62518327409276
234,234,4.6988331500766005,0.0,1,N/A,21.081841191913046
235,235,0.3358301250727802,2.932719315443162,1,1,22.972276475087895
236,236,3.1053486856333947,9.596983945830383,1,1,15.414089581756532
237,237,4.464892043271073,0.0,1,N/A,20.5961952309138
238,238,2.3371509542761104,6.16467080479964,1,1,15.476774748147815
239,239,8.706306401346225,3.2765086892687147,1,1,16.200247839944108
240,240,0.4843217512612974,5.275744621211269,1,1,14.208036500097627
241,241,7.21165731251186,5.750559020257064,1,1,13.299850690515553
242,242,4.355679595965993,0.5389947728090927,1,1,12.750171043801082
243,243,4.814385806799523,2.935730074175299,1,1,13.455088860489372
244,244,6.035813048559884,0.0,1,N/A,16.29420514688366
245,245,4.979871341922996,1.9436298162291965,1,1,21.84635361457635
246,246,6.605303383076794,2.435762384072828,1,1,14.066051532051738
247,247,7.580384146732123,6.148610937954107,1,1,13.965253439389334
248,248,0.31885675436720606,0.0,1,N/A,16.391845869349336
249,249,8.458747816473993,7.695023509377191,1,1,20.622858449540487
250,250,0.6630532139532563,4.289102313807681,1,1,7.845961363385871
251,251,3.437056045673309,0.588986482335514,1,1,16.59769969105563
252,252,8.798319616810664,7.0737869269038365,1,1,20.25328326886923
253,253,6.100749275063216,0.0,1,N/A,16.104027623299636
254,254,5.4646433432749095,3.2316719815599404,1,1,13.156560473631117
255,255,1.647157717567791,0.3678901512031063,1,1,7.336829145809388
256,256,6.45044216781595,8.512778864494821,1,1,19.00493227007604
257,257,4.955952556768683,0.0,1,N/A,15.391905617674517
258,258,7.411136723584898,4.5324331666566255,1,1,14.054818465839025
259,259,0.6678657218505968,9.825716564744654,1,1,14.603521204987825
260,260,2.4716873684007936,3.5141965725522315,1,1,6.945158964199557
261,261,6.196767203158631,4.684170855865888,1,1,12.97999991322871
262,262,8.156863995086214,8.017660881200591,1,1,18.10990110977185
263,263,0.7047561241282319,0.0,1,N/A,14.659837023202998
264,264,4.3969807245178725,9.53660101087689,1,1,15.930338238950757
265,265,1.9749839117534562,0.0,1,N/A,23.156982417752435
266,266,0.9353492901474425,5.39250846493256,1,1,19.35473421865228
267,267,8.335330365641925,0.0,1,N/A,8.571680426998626
268,268,6.642506905327867,0.0,1,N/A,21.28860979021868
269,269,2.3651528999543414,7.77869369610422,1,1,23.52326534717654
270,270,6.737864705775617,0.0,1,N/A,21.91954639203618
271,271,6.869793595900822,7.918406762515723,1,1,21.153031238767994
272,272,6.560506951161212,6.615276892265982,1,1,22.849289575093447
273,273,8.379993651128041,2.5245500379420305,1,1,12.6326594937898
274,274,9.296254366096786,4.519842568906942,1,1,16.12415459657494
275,275,2.711642381195174,0.0,1,N/A,19.61718965090808
276,276,2.0938643823738614,0.0,1,N/A,9.536705673900265
277,277,1.047480744228707,4.999203248399936,1,1,23.0728717060869
278,278,2.4146877416258796,0.0,1,N/A,21.699412989040685
279,279,3.664724948676369,7.109912219355151,1,1,11.31880887547283
280,280,1.0309452824293486,5.797845657345702,1,1,21.04678483381137
281,281,2.146646835750079,4.031651440766636,1,1,21.838387820206286
282,282,4.7026983699452165,1.2329873369180722,1,1,14.513775888605105
283,283,7.865923710713664,1.093660807939577,1,1,9.538933329608
284,284,7.19463350360935,0.4346527631328656,1,1,10.384776816289612
285,285,2.144382827138217,7.6057825723625525,1,1,18.217537363746878
286,286,8.223948458699601,0.0,1,N/A,13.300733653520751
287,287,4.762292015425436,3.1919189603194296,1,1,10.712842896467823
288,288,7.607126882304469,1.8789565559579535,1,1,23.41265477113101
289,289,1.8146809082717097,6.046734469220586,1,1,10.791005037284961
290,290,3.308488603914075,0.0,1,N/A,15.201271813581334
291,291,1.076667995767332,8.660844629399557,1,1,21.845221397582016
292,292,6.460062132707032,0.5774234311510074,1,1,19.77486743559241
293,293,8.82610019938005,0.7806641814560866,1,1,13.838763507237793
294,294,9.72458962635724,1.7762704203963753,1,1,18.41698187046636
295,295,7.7218885797229735,0.4222770618337546,1,1,16.939723757619227
296,296,5.325468407540517,0.0,1,N/A,17.571199588676123
297,297,8.907646027260453,7.776189494270939,1,1,23.917980179314988
298,298,9.283866969048404,5.155554682571125,1,1,21.14435875673859
299,299,8.256421724759196,0.0,1,N/A,23.606116237618608
300,300,0.7188214369667345,0.0,1,N/A,5.251876701790103
301,301,0.447859324527351,0.7985211558250394,1,1,2.9737993957817563
302,302,9.676574681424418,0.0,1,N/A,19.053361037335435
303,303,2.4548874621109773,4.089314811872187,1,1,7.030206114578851
304,304,0.2604963798230253,5.369184483575783,1,1,12.327482092664855
305,305,7.309184062015329,3.6909010097911645,1,1,11.873961602326577
306,306,5.18979794148019,0.0,1,N/A,14.016446725244709
307,307,5.0049123050878155,0.0,1,N/A,20.176391415460643
308,308,9.461703425937053,7.3271990545302925,1,1,21.642845465687518
309,309,8.449080921015009,0.0,1,N/A,11.158835757434218
310,310,9.034269642618225,9.26507093741686,1,1,23.199222873871943
