,Job ID,Stage-1 Processing Time,Stage-2 Processing Time,Stage-1 Machines,Stage-2 Machines,Due Time
1,1,7.040791431547415,8.59899398998943,1,1,20.862783395932283
2,2,6.414841243136646,0.0,1,N/A,23.464737313038867
3,3,1.632883488980369,1.9622365185303414,1,1,14.01563313743958
4,4,3.3841685904568566,5.474984622743325,1,1,21.250676801995198
5,5,3.315421065593384,2.46182142704206,1,1,15.215006188183182
6,6,4.5602423781626165,7.140734471661632,1,1,18.620705669572526
7,7,6.828892233820775,0.0,1,N/A,20.16438045231255
8,8,0.8023852994553848,4.231229638366239,1,1,19.09835138559156
9,9,4.846898340114917,4.0613032491778345,1,1,10.275957979938413
10,10,9.739853322349667,2.571988487062357,1,1,19.043667588789784
11,11,4.524149352751819,2.592744338950993,1,1,20.586547534623488
12,12,4.921749447949137,1.1247982320244643,1,1,10.765791594453729
13,13,8.473218315088467,9.504745365254754,1,1,19.425276871553304
14,14,4.823557589288786,3.6333407844891696,1,1,15.618981967892179
15,15,6.127769355453804,6.4753962975136385,1,1,20.746380945997466
16,16,0.06439197365205485,2.7593974829025814,1,1,13.57104868295659
17,17,6.793241168975273,2.113346423328072,1,1,19.777366815556835
18,18,3.6185838608834784,0.0,1,N/A,12.261542886552238
19,19,8.67068621926449,8.106912658271364,1,1,21.03471917496587
20,20,7.920516357936981,7.937776509901121,1,1,17.896237466910705
21,21,4.731793691039979,2.457938973934687,1,1,16.21839174234401
22,22,1.4753070895597775,6.202349167190917,1,1,22.78859645024712
23,23,2.9734730861418424,5.3135820671896985,1,1,11.374433587797352
24,24,6.174803291345801,0.0,1,N/A,23.685289336124477
25,25,4.796705490736391,5.569599245717226,1,1,11.495598580542115
26,26,5.85098840804959,0.0,1,N/A,13.706975921119703
27,27,0.7158178507560975,4.006507248286136,1,1,6.43577316060312
28,28,8.122344036551187,4.926276401715576,1,1,13.250000098961433
29,29,0.08737236476221155,7.861829344819985,1,1,21.32965047046026
30,30,9.118018858604465,2.6628535135678035,1,1,18.05178671658107
31,31,1.6746623253848836,4.65052388929167,1,1,12.287283436532341
32,32,2.2928294001747282,8.836339496274903,1,1,23.09294395773918
33,33,4.731963750259537,8.603323846021894,1,1,16.657709358983965
34,34,3.8722538509420836,2.9908057706184907,1,1,9.761269929204275
35,35,0.11862319425072765,8.230401956175532,1,1,11.90046358396958
36,36,3.6198478137003933,0.0,1,N/A,9.729201541646495
37,37,1.0470899244717602,8.659107934009807,1,1,11.517834998068023
38,38,2.807565205327781,8.166251874565706,1,1,19.83862225247612
39,39,7.5575442637943855,3.9333206102960716,1,1,15.913716249792056
40,40,8.367942056018894,0.0,1,N/A,18.464872818621895
41,41,4.489368014693026,0.0837236370046257,1,1,15.545945214233143
42,42,1.1255641178452747,8.719868578219735,1,1,13.414025058617835
43,43,9.645872646938367,7.094539254874198,1,1,19.566286298118253
44,44,1.814635861622813,4.999883856696141,1,1,14.042441840269959
45,45,4.138179826222111,8.764012815518294,1,1,13.47513315605273
46,46,6.533455415649079,0.7233105077766455,1,1,19.25205547174802
47,47,6.697461845231189,6.2221085887290375,1,1,19.19361671924418
48,48,3.6681281696571375,0.0,1,N/A,12.998384025706192
49,49,9.017481375696638,0.0,1,N/A,12.898355300063994
50,50,9.668358232145463,5.684730633959942,1,1,18.691435349929666
51,51,8.230521885757929,1.1469105495118093,1,1,15.470428826174167
52,52,7.094826934437578,8.495396183908662,1,1,22.133004066282055
53,53,8.626548046369448,7.697418505298299,1,1,23.89568646400872
54,54,7.310267657255578,6.361546233631624,1,1,15.57685572951114
55,55,7.400887077239158,0.0,1,N/A,13.058725516601717
56,56,1.8899640376914284,5.215308991135811,1,1,18.593865740684564
57,57,0.1816723387039476,1.931147771576962,1,1,19.083071676959072
58,58,5.891874196946331,7.1393988965878314,1,1,20.521210322963018
59,59,8.826947781375798,0.0,1,N/A,23.877267382554493
60,60,2.380462246657741,0.0,1,N/A,23.84697206455621
61,61,8.075073280966686,2.6975688446560286,1,1,16.93587721205139
62,62,6.475865315016303,0.9567053941382153,1,1,15.353742710305806
63,63,6.822583151602264,7.262544226820476,1,1,22.464267600161236
64,64,3.537394159878936,4.037102348277763,1,1,22.198138962947528
65,65,6.469168270241577,3.893733910954089,1,1,13.926151215429318
66,66,0.7508999799335914,0.0,1,N/A,23.116492785059492
67,67,0.8733548054664997,6.4275898950167285,1,1,23.530334430658357
68,68,8.149283687905921,2.7251162717055744,1,1,14.595718829807355
69,69,2.374547376357734,2.89982313701692,1,1,14.75822829353546
70,70,1.6902797523702218,6.991079550951622,1,1,23.503820626528253
71,71,1.3791418020884927,7.442910810098518,1,1,22.53049128064269
72,72,9.648908808936303,8.713079185721341,1,1,22.02847939929528
73,73,1.3406347176979427,1.8789238580610412,1,1,8.500182259689225
74,74,5.096134084793773,8.352345275052478,1,1,19.515751676570318
75,75,2.9660753295874187,6.729693335836947,1,1,20.248342433597045
76,76,2.6509281380334104,2.4632711273873076,1,1,13.675179871516054
77,77,6.573346016683295,0.0,1,N/A,21.328581608825438
78,78,6.542895148074264,1.442539107797236,1,1,19.583173056198543
79,79,6.253697403308318,0.0,1,N/A,11.1602980706683
80,80,3.5189744889254158,1.4401884675012622,1,1,22.120792722441262
81,81,0.06071168969601359,1.070103078756498,1,1,20.958135636303933
82,82,9.189570889590504,0.5283885940374489,1,1,12.906095958732843
83,83,2.2359025072236727,9.491080142918172,1,1,12.819581772355335
84,84,7.272640266860684,7.098006870052334,1,1,20.788984939498754
85,85,7.597611092922433,8.009682195059806,1,1,17.509802493029575
86,86,4.251189032723897,8.316227157329136,1,1,13.220199163810513
87,87,7.004090459011644,3.808578267657544,1,1,14.661781235534015
88,88,1.7502803227628216,1.7038870982664978,1,1,15.597206920351613
89,89,9.125040933993194,2.8860824517485115,1,1,23.78277673307712
90,90,2.3819878687340177,3.048857122590629,1,1,11.369803706339823
91,91,1.903152524940237,0.0,1,N/A,17.705613613292215
92,92,0.6638532339324299,0.0,1,N/A,19.027186000389065
93,93,4.815838701251397,0.9470100867166187,1,1,18.385573155531336
94,94,9.050273822711677,3.7342375819851448,1,1,15.441889076980354
95,95,5.340003652750602,0.0,1,N/A,23.677552895880133
96,96,0.5208545861706226,8.236956294789954,1,1,14.182444651196793
97,97,7.157119222472153,0.0,1,N/A,18.744351548205515
98,98,7.6755114280059615,0.0,1,N/A,23.574695519267326
99,99,7.263337268923543,1.2807678260555366,1,1,22.352712357340984
100,100,7.246120737999224,0.6120371365598654,1,1,22.85556344248851
101,101,7.23098678635111,2.954036135449729,1,1,11.383699068469923
102,102,8.921269319924212,3.285600468221983,1,1,20.574427274189375
103,103,7.714374304653991,1.6788450466082094,1,1,19.916859796049636
104,104,4.373158786031489,0.806326957187995,1,1,16.53541099057222
105,105,8.04538305801305,0.568937670690769,1,1,14.739527360466223
106,106,7.937888019725948,1.3228507332575867,1,1,16.584387738622432
107,107,5.005759590390012,0.6830936122941555,1,1,11.221024865410353
108,108,3.519846251836185,4.027452810167369,1,1,16.62424600123066
109,109,2.6003406843098444,0.0,1,N/A,21.07227208016961
110,110,1.5967608758150353,8.440760049188775,1,1,23.63578381779024
111,111,5.367418271529499,5.066833705251121,1,1,18.561892007151446
112,112,7.061669798427089,7.729853640323019,1,1,21.569090895954748
113,113,8.308223235343242,7.374314969932277,1,1,15.803333560091255
114,114,8.283332692119721,2.792848468864062,1,1,23.03422348836591
115,115,9.084493003398652,1.9920494401822553,1,1,23.584185640929952
116,116,3.5801457029134607,6.854420487935729,1,1,19.363856758080328
117,117,3.0151779437386503,6.681919805766806,1,1,17.49075842837355
118,118,0.6302154306099517,0.0,1,N/A,8.162243542966529
119,119,0.16327477057604178,0.2606100881299167,1,1,3.7287734945440416
120,120,8.384838691520331,8.64860962442136,1,1,21.30457484314767
121,121,7.336851048137863,9.439224413174191,1,1,22.880977139506196
122,122,2.2572838075884594,5.7802629003492285,1,1,9.172830766255572
123,123,6.895183425346076,0.0,1,N/A,20.767478747513596
124,124,9.071322885617146,8.944814658364114,1,1,23.690232391517213
125,125,1.926106702540421,1.4752626350773912,1,1,21.791325293714564
126,126,5.099298517345661,7.204033191739862,1,1,16.158143667252006
127,127,6.744039033989083,9.582798291819557,1,1,19.435452964974427
128,128,8.547753548539358,3.7240674590712186,1,1,19.08976933711536
129,129,7.640413315302044,6.00823809041311,1,1,21.00629959143029
130,130,0.34749602804223123,0.0,1,N/A,18.745096099990455
131,131,1.3044898149710882,2.8671237044640394,1,1,15.62841678712595
132,132,0.8779067766127246,0.7516274373714493,1,1,21.010000541143462
133,133,5.916601972661434,0.0,1,N/A,15.622091877089119
134,134,6.261808933002669,0.011925751034113086,1,1,12.88627618492989
135,135,0.9305442381212348,0.8671379608803453,1,1,9.992718543253426
136,136,0.0007853241396715838,2.802485892744928,1,1,14.147107944322471
137,137,1.1524777534792263,8.900546896162147,1,1,22.840433873872207
138,138,0.21663480186497885,8.314482699420202,1,1,11.210677464460474
139,139,2.3651430503536277,9.741888112656307,1,1,13.049341502560642
140,140,2.893380198326491,7.339503573755054,1,1,16.253312869253048
141,141,6.699857847616073,6.647154115029489,1,1,16.108905257240373
142,142,5.646051535857795,4.24236426235801,1,1,18.454932996535504
143,143,3.5974974668824866,1.0266567912945845,1,1,16.436267880781948
144,144,9.408673415166561,1.7789157620947083,1,1,23.062162887122092
145,145,5.40071698512298,8.331896659949281,1,1,18.771897880670863
146,146,8.22796627738341,0.0,1,N/A,16.208019422466602
147,147,2.7645750112582346,0.0,1,N/A,6.044774989946522
148,148,5.560976475261735,9.458484380265906,1,1,18.24890272315207
149,149,3.5983629765271408,2.98509202453947,1,1,20.93166046938623
150,150,0.11574411628114123,3.74375491164011,1,1,21.513069570797747
151,151,0.6633540722338371,4.257713272725335,1,1,10.779996620061159
152,152,9.127767409479388,7.1119989688487415,1,1,23.539284101129972
153,153,4.669107493219828,0.0,1,N/A,22.286180049316464
154,154,6.873669782058944,9.681730227954176,1,1,18.50075237391947
155,155,2.9631558408255754,1.5594678948921659,1,1,8.676736224044523
156,156,7.583963069791687,5.806481673807662,1,1,18.949112954132833
157,157,9.088397761256292,8.452064194533978,1,1,23.764665527755554
158,158,6.583680011595238,8.24157636260465,1,1,17.003502759613774
159,159,0.5109493190426573,4.90359959817198,1,1,13.575004942316024
160,160,9.033685324662388,6.582958739125938,1,1,22.16095298571766
161,161,0.8648374584882867,0.0,1,N/A,13.652203516966459
162,162,1.3893000279677858,1.7706133770041577,1,1,16.590507766395287
163,163,7.977993586511217,0.0,1,N/A,19.53365229482274
164,164,4.630586966665701,0.0,1,N/A,9.598491648193553
165,165,0.7964033388728975,0.0,1,N/A,16.194187183401244
166,166,3.9455445565663827,4.133009176531971,1,1,9.834385882965865
167,167,1.51813073607171,3.6340728039375056,1,1,19.20395766730993
168,168,4.241228627968585,1.1730492528063496,1,1,6.477535986421191
169,169,3.6145342594409327,8.575259762752015,1,1,19.48162719862196
170,170,4.711789964151091,1.6552940372108016,1,1,7.617307901999804
171,171,4.2252351602469655,0.8596882995818755,1,1,15.956306564553444
172,172,0.48271058880539286,0.0,1,N/A,12.117570693655761
173,173,3.496382369878134,0.0,1,N/A,21.58835708511157
174,174,8.678523390831682,5.899785397318473,1,1,23.561589565027404
175,175,3.342767631180478,0.0,1,N/A,19.016232458296315
176,176,5.521966202722586,3.892461585749235,1,1,23.550608312944036
177,177,9.143724869160028,7.570742588447025,1,1,19.410664909136756
178,178,4.887358151905708,9.144552536926847,1,1,21.881389654703987
179,179,8.315305034546563,6.337377066577306,1,1,14.813452028108214
180,180,7.157503067344497,0.0,1,N/A,13.201554924114225
181,181,7.214594273202151,3.200048788214601,1,1,10.626203624654885
182,182,4.064461251018291,1.185089840969773,1,1,7.288607482401526
183,183,9.174498618627766,1.134166243661766,1,1,23.822114804969225
184,184,7.264341257115109,1.0895386380606542,1,1,16.17357834813602
185,185,0.03198947046302081,9.240665125516418,1,1,11.807381780746304
186,186,1.8218942328561383,2.7498807509439316,1,1,14.156846787318509
187,187,2.79460172312426,3.74802956013385,1,1,10.7062987504172
188,188,2.2936215845241135,6.83352107042107,1,1,14.957918083415368
189,189,1.794528987202939,0.9558402965712609,1,1,17.881831043923142
190,190,8.680623248889209,1.968687098073243,1,1,14.1849476463564
191,191,8.761119330348576,6.884293822356721,1,1,23.53392333862874
192,192,2.3705885950703753,9.438234618141545,1,1,15.674156105072026
193,193,0.8467909089847114,0.0,1,N/A,11.710750553579206
194,194,9.769166605887147,6.132332825547902,1,1,23.303220212645613
195,195,0.7014771495720729,7.943352595069787,1,1,15.559309329238861
196,196,6.7465382754220915,6.685251829170582,1,1,13.724776851253214
197,197,5.382077805672273,6.569654144322686,1,1,20.66945955719726
198,198,1.6799619632595408,7.88041817077599,1,1,14.244028746974603
199,199,7.7942128403789575,7.674292586794207,1,1,22.235652933697665
200,200,3.836879977585107,0.5170565828309104,1,1,12.346104625886735
201,201,2.881368183658546,4.4099797719278975,1,1,11.59099531353256
202,202,3.455896772033352,7.614067423442138,1,1,14.68057949489637
203,203,0.8976313542934156,0.0,1,N/A,18.858253181695673
204,204,2.8382632386573983,0.0,1,N/A,23.76017344153363
205,205,3.9001379189261254,5.152457809543316,1,1,18.419158597829487
206,206,0.304289961582318,4.527248477124046,1,1,23.711937297282205
207,207,4.919967410269841,0.0,1,N/A,17.16095494737485
208,208,5.473169252938663,3.624019415325681,1,1,10.164691579582998
209,209,4.2420034649532745,5.55108380196514,1,1,14.769956796693155
210,210,4.671533773934328,7.8640314764957076,1,1,22.498009422739095
211,211,3.9353039085310515,0.0,1,N/A,19.194187838308316
212,212,7.861144553983993,5.987971521547037,1,1,20.454783140570758
213,213,3.9464726850455714,4.927661836503509,1,1,21.48026779853025
214,214,4.517506334768017,0.0,1,N/A,21.8321151946432
215,215,8.313668015718324,0.7754227022980342,1,1,9.942558776461459
216,216,8.922850604594194,2.667319246285502,1,1,18.719258952906053
217,217,8.436888199639467,8.48397022773572,1,1,20.33011686259094
218,218,9.449330119875356,9.244202018819212,1,1,19.149209505259325
219,219,3.705987034851439,0.0,1,N/A,7.586427008892866
220,220,5.687038629674321,8.255448993033458,1,1,19.295285963780707
221,221,4.767378997388112,2.91452347024286,1,1,14.70843398524855
222,222,4.391474128481533,0.21399882452203922,1,1,12.742529147546374
223,223,9.90829882495203,8.869015159317403,1,1,19.543274114107454
224,224,7.548391306675447,1.8370555661282972,1,1,20.509968154445417
225,225,1.7463417541851356,9.026271688471775,1,1,13.690268612356306
226,226,3.97205122000035,7.6408536202061565,1,1,18.227961249179128
227,227,8.52734697983651,9.459017995783688,1,1,22.99201191204137
228,228,9.757538253015774,8.262408062150012,1,1,18.179223483866743
229,229,1.9622801344680874,0.0,1,N/A,7.766845536974548
230,230,5.6948911090412055,0.0,1,N/A,20.273915427644624
231,231,3.1412101103445456,0.0,1,N/A,21.681761389969207
232,232,8.992000630395475,2.3491724432691474,1,1,15.064532986342964
233,233,1.5160953416838385,1.393615733715976,1,1,16.54855207807931
234,234,5.065917546620073,0.0,1,N/A,18.07203835412296
235,235,7.989183776774407,0.0,1,N/A,22.964042350763993
236,236,9.180231646297665,9.784594813337106,1,1,20.117965714908948
237,237,3.932521524702314,8.72567262085685,1,1,12.711264417018196
238,238,3.0845577605890426,6.764095293905683,1,1,10.736210517221009
239,239,4.038626509930405,0.0,1,N/A,15.208559974786812
240,240,0.03681297363942515,6.908259477530612,1,1,23.87001953366092
241,241,0.24410953743010166,3.233867160491124,1,1,8.561511295737748
242,242,5.57473958185358,9.985858140390135,1,1,16.73758334248281
243,243,1.2934504349584464,8.10002693885735,1,1,18.69487632361701
244,244,2.7167906272241513,5.925512281519033,1,1,17.239466799520784
245,245,3.8814123015002746,9.205916112556539,1,1,22.73009272572183
246,246,5.668730655834758,0.0,1,N/A,10.088231051828323
247,247,6.145001478260595,2.2336235603515933,1,1,11.805194399836044
248,248,6.648089269492308,4.424382447447436,1,1,16.67921281518199
249,249,4.469153990422761,0.0,1,N/A,15.829223426969659
250,250,0.8631757967252007,0.0,1,N/A,16.63632392573137
251,251,0.47839159519033836,0.0,1,N/A,20.037525854059552
252,252,4.389878070740925,3.6423125126048204,1,1,16.605245040208796
253,253,9.507028204683845,5.0923802934176745,1,1,14.618022245585527
254,254,0.8937433767940561,0.0,1,N/A,17.746187007813624
255,255,0.8402984396472779,5.671558247573648,1,1,13.345092276417851
256,256,5.433339822550272,8.920284720607011,1,1,16.855276879068718
257,257,1.2261387506196775,9.3523675614008,1,1,23.54303506985806
258,258,1.394294525119405,5.649284688591677,1,1,23.395638525918933
259,259,8.710672045861195,0.0,1,N/A,11.632675600638422
260,260,0.3633566442460101,3.139299315383026,1,1,4.245171258202224
261,261,4.7097648534979974,9.314314091276573,1,1,18.592863802213266
262,262,5.859022743745401,8.048896697579286,1,1,16.775580603294337
263,263,2.1627376399611986,4.172539889253443,1,1,23.93163246964781
264,264,1.6683216590504935,6.102435397066537,1,1,22.20579532412819
265,265,6.07235109662883,0.0,1,N/A,10.23468103939511
266,266,6.707689723392343,0.4540333010345676,1,1,23.938327772923003
267,267,4.0251737866301385,6.114541989381155,1,1,13.237491603706523
268,268,4.36917146047877,5.216753485886269,1,1,14.728559910906634
269,269,3.7110067589041993,5.200231383376966,1,1,12.246850472067507
270,270,1.4074306743013643,6.243971486750306,1,1,17.532851766292893
271,271,1.4746662889656958,6.980429278168472,1,1,11.14745673111673
272,272,6.440012295352591,7.082432431584272,1,1,20.96095505970962
273,273,8.86732111635885,5.645786961744834,1,1,16.15165176859561
274,274,3.913882018151602,8.656781701376916,1,1,18.453780943647104
275,275,9.580349005011206,9.436647249175351,1,1,22.365992662034813
276,276,0.6466933637209404,8.50722332417118,1,1,18.31837076928627
277,277,1.6383298161479931,0.0,1,N/A,15.598240923601194
278,278,1.435702958050058,0.7109807435115945,1,1,22.91487348531844
279,279,1.551401555906189,0.0,1,N/A,14.102737641080385
280,280,6.975583482553418,0.0,1,N/A,22.90629128538871
281,281,2.928903822884472,6.164803811171672,1,1,22.13501952055892
282,282,8.124925684706735,4.852281244361566,1,1,23.972457917888786
283,283,0.39559160210301925,3.3949898373051743,1,1,12.099736983127606
284,284,7.117191706791952,4.595325576090269,1,1,22.984294951510527
285,285,6.051362899569776,3.527964772111458,1,1,12.187717610798801
286,286,7.16729082268955,4.603653776726315,1,1,18.069824700114467
287,287,9.730224628739158,4.256102698471493,1,1,20.40955791558293
288,288,6.10719811920145,2.9403245787393417,1,1,15.811057426087295
289,289,4.183067743672879,7.776146089569477,1,1,16.337723546850558
290,290,0.23024666118545478,7.267918806241054,1,1,18.058028201662548
291,291,1.8042638176876236,8.815884982767884,1,1,17.86040499902282
292,292,2.65479254164131,9.56447855146227,1,1,17.502427841076177
293,293,5.334315771625385,2.6891526505996954,1,1,9.738755449338212
294,294,5.178585712640499,1.2146321087422307,1,1,8.441330667379265
295,295,1.52469864492086,2.762352838341294,1,1,12.125960672841114
296,296,2.679192554701747,7.095558655142957,1,1,22.469604874805434
297,297,3.745389685913799,2.7675533206769143,1,1,22.349948779526088
298,298,8.789775941241318,1.9845454083602887,1,1,11.334648306737527
299,299,3.8989428246983615,7.49296936495837,1,1,22.652079673938776
300,300,0.7404296931691434,8.207893495609795,1,1,9.157181601622453
301,301,0.8693118069654882,9.418407041024771,1,1,11.71495913362406
302,302,9.355269532730121,0.0,1,N/A,18.16836728186103
303,303,3.2064422073424437,0.0,1,N/A,13.947909476044138
304,304,4.630070233085615,7.705542849050078,1,1,17.58680242000875
305,305,4.712497626194781,8.444110402129377,1,1,21.74868359709383
306,306,9.842456590140538,0.0,1,N/A,16.619232865740333
307,307,5.622846869170149,7.358320181068825,1,1,16.282363336523307
308,308,4.867672025377827,6.8444711164446375,1,1,18.728698249254563
309,309,5.9372910993464,7.16531265301953,1,1,23.10894118750033
310,310,9.126116311067191,7.112789988033398,1,1,18.000581858912142
