,Job ID,Stage-1 Processing Time,Stage-2 Processing Time,Stage-1 Machines,Stage-2 Machines,Due Time
1,1,8.439499848735009,9.745041812516568,1,1,18.61147978659026
2,2,0.5785605890559575,1.307256050123211,1,1,13.768196028921308
3,3,6.51871085550427,9.667324121123226,1,1,23.224293439485315
4,4,9.586767852723506,9.037633181448276,1,1,22.706409949488627
5,5,3.0558259638734686,4.688435118873936,1,1,20.6428477259275
6,6,5.482476366301233,7.866901265560332,1,1,16.433130916447734
7,7,4.5604926053590855,0.0,1,N/A,14.868946182049557
8,8,9.321654362398057,6.98763894763864,1,1,17.678371392229085
9,9,0.28007530879553655,5.670813262689064,1,1,22.860673558719782
10,10,0.7208075689756799,6.8374634959135,1,1,11.198437130306107
11,11,7.657943820139032,0.5284944496793065,1,1,23.915592989799535
12,12,4.9187260100726515,2.489742438144492,1,1,19.48996348530101
13,13,3.3878236471865253,1.6311417392145433,1,1,8.691461874733827
14,14,9.986799433120188,7.05311574304841,1,1,21.511073643578946
15,15,8.400715507411034,3.6258858314636386,1,1,18.398586252715475
16,16,6.613128621474759,5.58285714070546,1,1,20.523234381578426
17,17,3.9617377755167302,7.597496504968955,1,1,14.95195561468369
18,18,1.479463737870944,0.460633553342078,1,1,12.18539890111492
19,19,9.166812960653646,0.0,1,N/A,18.21853169498496
20,20,5.610925476292365,0.0,1,N/A,18.996928600352025
21,21,6.737135365603532,7.017520273738356,1,1,21.90748392951965
22,22,6.730185402178948,7.377225880573153,1,1,14.397576953591312
23,23,4.049172450603088,1.8363148020828823,1,1,10.840632507169284
24,24,0.4295418501478754,1.9092245401144459,1,1,3.3420066696336344
25,25,2.897660663331708,2.300137583158656,1,1,23.79478473795408
26,26,3.0697327789855358,1.8486868653914357,1,1,13.76398522812907
27,27,7.181371072392656,6.081091016922347,1,1,13.462627899683756
28,28,9.835476378997196,1.5582839350957678,1,1,20.68626287914814
29,29,5.5940564289052395,0.0,1,N/A,16.036087095285588
30,30,7.765976460682254,0.0,1,N/A,22.57600930589773
31,31,5.981979944587128,1.9269743756612867,1,1,11.352120819406993
32,32,2.34312441094764,6.079786519646334,1,1,9.23016695321672
33,33,7.759670016646906,0.7339448407555027,1,1,8.985259504365143
34,34,9.998821745693467,8.332924884398041,1,1,20.65406359370798
35,35,7.061171186544895,5.191831512365183,1,1,12.58870898447077
36,36,0.6168976461113906,6.25462327665111,1,1,11.717699044846013
37,37,4.303764159590845,2.859561289837338,1,1,23.8575658918762
38,38,2.763557625399735,7.752917966010826,1,1,18.015434862492455
39,39,0.3860484638845296,2.7197406353187983,1,1,21.90691964615963
40,40,1.8382682843726195,1.909137415803871,1,1,11.53473757204763
41,41,9.986998309199864,0.0,1,N/A,21.467720739653842
42,42,9.67628642538972,1.8878554814126447,1,1,17.822735123118076
43,43,4.796648367400199,8.5096984249556,1,1,17.404816824355894
44,44,2.9812704629878706,1.1648081016674916,1,1,9.389436101651938
45,45,8.171821410086165,9.511957029426734,1,1,21.136309696311592
46,46,0.8077799025626209,9.573642075226283,1,1,15.425909478170697
47,47,6.403314144478697,6.938493858617493,1,1,21.170869531484854
48,48,2.3530471807704667,8.366164019680065,1,1,19.685208393161915
49,49,3.7050643137370045,5.894961817858382,1,1,13.236336278513992
50,50,0.46984838122188344,5.092086150749177,1,1,23.54067231342337
51,51,9.655958050867685,8.747591025718856,1,1,21.974690377847924
52,52,2.3299911561158693,4.2027390056385805,1,1,11.808346218157109
53,53,6.978248032079859,4.83303630983147,1,1,23.427044668208694
54,54,5.893950251291399,1.2048147614830362,1,1,14.51271583110321
55,55,9.875591360199616,0.0,1,N/A,23.43783472174366
56,56,6.285058334504916,2.9926980832640506,1,1,21.558332573888052
57,57,4.80856242650905,5.592139980285923,1,1,23.399046215464224
58,58,5.793628782837184,0.30564743841993147,1,1,17.439574694561813
59,59,7.251497024794965,1.8745990000351886,1,1,16.630394399359922
60,60,8.464648064215616,0.0,1,N/A,19.800611503765072
61,61,7.322688217881787,1.04935115050249,1,1,19.97341726459698
62,62,5.588126981239306,1.118213202835655,1,1,9.172537121235088
63,63,7.641923181277775,2.003327238090545,1,1,11.308896328661563
64,64,8.456913935115507,3.8184492363810243,1,1,15.679744237143858
65,65,4.041314424851028,0.0,1,N/A,21.9953893185033
66,66,6.1461367833159395,1.120147865331348,1,1,14.018378333352384
67,67,1.9653089453389505,9.85765086577122,1,1,17.73653514600955
68,68,8.013071402441277,3.149819461666464,1,1,17.88823751845355
69,69,8.388768551078611,9.935810400243168,1,1,20.81024140594139
70,70,1.2881436948512914,0.0,1,N/A,18.146540662642572
71,71,7.734264681987363,0.0,1,N/A,20.115077129177514
72,72,8.920587481841139,6.334727449360646,1,1,21.484418705129734
73,73,3.0653847900664344,3.367419383058401,1,1,18.46769503926543
74,74,7.704971221443559,4.99779321151782,1,1,21.649973624398836
75,75,8.155775826802365,9.083270344204617,1,1,21.402722133241273
76,76,1.3101871678433596,7.309642350252941,1,1,14.402305055422447
77,77,9.317374229705543,2.066419577116773,1,1,17.477635878180614
78,78,4.424668493946112,4.1521693190404365,1,1,10.389142777152786
79,79,5.231346268168846,0.0,1,N/A,17.001104239143086
80,80,7.061546538929515,7.4630446359986715,1,1,19.792634256498964
81,81,2.8487489732793847,2.038961105530853,1,1,8.991943567184741
82,82,0.45976437401176296,0.0,1,N/A,11.220267645128974
83,83,3.7839607465381206,0.0,1,N/A,8.04968822830558
84,84,0.5422300728779517,6.4673111615867,1,1,22.3323310583767
85,85,8.332551342343548,8.82775524434779,1,1,20.254137267271417
86,86,5.810313163837469,7.645142686583773,1,1,17.253099453955176
87,87,3.503518354169061,0.7796876829744248,1,1,23.025394708690325
88,88,8.884683838572814,0.0,1,N/A,23.1832631624479
89,89,0.6130333276744815,9.031502416365846,1,1,15.8545195291282
90,90,9.28168811673451,9.87360451816446,1,1,22.032435155494305
91,91,9.021562160574568,9.265432301385871,1,1,20.504579061505492
92,92,8.37229029843307,0.0,1,N/A,17.398672509809394
93,93,3.2530467402523877,7.8243330215421185,1,1,13.151440524316119
94,94,9.104386560836726,0.0,1,N/A,19.5609851571351
95,95,2.7484986990334415,0.0,1,N/A,14.381660645093008
96,96,2.0639229581004956,8.796010924245895,1,1,11.435236915512522
97,97,9.902535665114637,5.771985284768125,1,1,16.229634978572538
98,98,6.585799476017571,9.907484725905984,1,1,21.515717922392795
99,99,8.89150569876765,6.964874848390515,1,1,22.772389237850728
100,100,9.009586777755098,0.0,1,N/A,11.819457271023262
101,101,2.8295915783887535,6.001908643546644,1,1,20.90735378493192
102,102,5.925959793372022,0.0,1,N/A,21.987838055568403
103,103,4.382068444854353,4.057912708004955,1,1,23.858922124254764
104,104,8.091820139369778,6.283404297936006,1,1,15.072496831376222
105,105,9.479237430341982,0.0,1,N/A,19.34377096288701
106,106,5.501100210904176,0.3882106539214114,1,1,23.82989490305345
107,107,7.135241367652708,0.0,1,N/A,14.783901723199094
108,108,4.98104475355481,4.817358951697704,1,1,17.07403687232582
109,109,4.495706858204746,6.11493091107011,1,1,12.756497618052803
110,110,3.776877113091963,3.961138794251695,1,1,10.879968036849604
111,111,8.696606182583801,3.959914010745269,1,1,15.232157353955108
112,112,9.462615363105506,4.899106091437634,1,1,22.18862138082554
113,113,9.414462425546521,5.691714528039898,1,1,15.496464468371277
114,114,0.9114888852942271,7.171107655833873,1,1,12.442496284559674
115,115,6.235122084650958,6.4458411583451625,1,1,16.62772276526074
116,116,5.253806882377564,7.300949965042039,1,1,13.694986949442884
117,117,2.1936598685826514,2.232341363717971,1,1,8.008291677701804
118,118,5.250609103491591,9.296289332493052,1,1,16.257799770636176
119,119,5.922221313015148,4.0092276381884595,1,1,18.198883814922937
120,120,5.071750861148453,7.446704804875887,1,1,16.860541112298726
121,121,5.062311356004411,0.0,1,N/A,16.00886974434601
122,122,6.268832658480733,3.6033362715456185,1,1,21.393614293374252
123,123,2.7637219422869306,0.0,1,N/A,20.04223001140916
124,124,6.881111301446663,0.0,1,N/A,11.133241517258389
125,125,9.618266052424135,0.0,1,N/A,23.373445638876667
126,126,1.8984454087498759,5.416745281598335,1,1,10.230502127984165
127,127,5.005520346435799,0.0,1,N/A,15.8612154664513
128,128,8.252240398522826,2.4475089819988183,1,1,21.36358916047554
129,129,4.972852604224713,9.955768766849442,1,1,18.177392235312418
130,130,3.3751432200230647,5.882189387937608,1,1,20.148726276008077
131,131,9.339015395070847,3.1427290481351733,1,1,18.336268753256554
132,132,0.8373592589645484,0.8649120266684884,1,1,1.7965431699254515
133,133,7.066597670954014,0.0,1,N/A,20.121201849272374
134,134,4.248315463911117,4.94392400883484,1,1,12.25158494821601
135,135,2.8139872599379414,0.0,1,N/A,15.77308862377287
136,136,6.424281380717812,4.6640402205474905,1,1,12.546446912246866
137,137,6.761236275783306,3.039662422229481,1,1,17.309717107893558
138,138,9.360068781715588,8.996085851236096,1,1,20.566762299164278
139,139,1.5890948470669464,4.04142227632304,1,1,21.37036921182774
140,140,5.56801992271282,4.824918052244479,1,1,18.730213646303273
141,141,0.7027732111139984,0.8838459380422836,1,1,21.57312781010611
142,142,9.80999569753545,9.440755105048984,1,1,21.55554992093998
143,143,5.112448036595202,0.0,1,N/A,22.378391674739518
144,144,0.6621805097763289,2.084998407143442,1,1,6.833350631992645
145,145,6.333610053823794,3.950292767749678,1,1,11.42292280688001
146,146,2.6459367036012296,0.0,1,N/A,12.716058966585189
147,147,1.9161600654753241,9.435650661330365,1,1,20.345792115148257
148,148,7.124227862405653,0.0,1,N/A,15.769940790628382
149,149,7.4134278791665125,1.7238891628813546,1,1,12.942172663241466
150,150,0.44950957897909816,8.04581012411137,1,1,13.717408724783754
151,151,7.721286996853464,8.903790862589801,1,1,17.37355438303986
152,152,1.3703822135302446,2.122718940134302,1,1,14.977856644362781
153,153,5.634409169882368,1.5718373818441633,1,1,15.08192586032277
154,154,7.803385642802471,3.697848958661792,1,1,21.501995238125595
155,155,7.159615499518667,3.825043469618572,1,1,13.344885233905071
156,156,6.637273752685147,2.549852146852335,1,1,13.186972200313212
157,157,1.6574307434822444,8.567324503793433,1,1,10.989908214944668
158,158,9.6038442090743,8.691543401981061,1,1,22.453329070380157
159,159,8.659357914075784,9.031950684186539,1,1,19.185753930659843
160,160,9.879577382293409,9.578797389280213,1,1,22.35428075270283
161,161,8.229655994305118,7.024412695106911,1,1,21.455434730061995
162,162,2.8250692966908653,4.035627661456048,1,1,12.229124591863433
163,163,1.6064988875197428,4.711359001246923,1,1,18.00046478386576
164,164,1.1988397433533882,8.141896591955685,1,1,14.434377254270466
165,165,9.881007602594094,7.8382142791619085,1,1,18.347571348263976
166,166,4.104504882567863,8.815209267407857,1,1,14.59897015619631
167,167,0.5008043521944805,1.4524483978446123,1,1,12.006771989956459
168,168,0.10308671478248543,2.0479576327602977,1,1,14.292409761867992
169,169,9.12628894600276,1.4280794411871578,1,1,14.888709047673073
170,170,1.1978502463823792,7.0774940224911855,1,1,15.475576616988878
171,171,3.6953483622860284,7.848003073514635,1,1,12.163896813666462
172,172,4.299170433440409,0.3777659088458707,1,1,14.923208390861994
173,173,5.686740653774559,6.581117435749127,1,1,21.294402971464333
174,174,8.131327977107633,7.26082968002769,1,1,23.706935301973214
175,175,0.5494582027850903,4.231459740963203,1,1,21.37381087092194
176,176,3.703771964541025,0.656960152662931,1,1,23.090990645282247
177,177,8.695117880357468,4.856681681212002,1,1,23.274152553268166
178,178,2.3459898231704557,3.5616493441938446,1,1,12.461880996654234
179,179,5.2461467687364465,1.4349632745402663,1,1,10.083929917565554
180,180,0.39726063679254686,5.443844255046052,1,1,13.192533825434623
181,181,3.561704625153973,4.184150065050635,1,1,13.400220182307322
182,182,3.900065429078098,5.105668833714045,1,1,14.081176211648641
183,183,8.22725117282832,5.167659030338424,1,1,20.61522491007369
184,184,5.401370003193059,0.25968130139545686,1,1,7.017955025155312
185,185,7.273986532407745,0.6050280879313896,1,1,21.47344181427721
186,186,7.2772819786339396,6.177039143895203,1,1,22.070985525740475
187,187,7.0620905599261015,6.85969336424058,1,1,22.405514791317884
188,188,8.771177212977634,8.966914407320616,1,1,22.719200951599255
189,189,8.804352687072997,8.774402837518437,1,1,21.94138676780936
190,190,9.850169048831535,5.111799502653768,1,1,19.686763707831673
191,191,8.552602721235008,3.937361721642919,1,1,17.88638448958239
192,192,0.37961306831884256,6.0402561048326255,1,1,11.979008896352777
193,193,1.6118221554455159,0.0,1,N/A,22.750614501157674
194,194,3.2170067517123258,2.674106590734721,1,1,16.51131663921201
195,195,1.411116712639141,5.883981843999918,1,1,7.348586045925028
196,196,8.887278378673468,1.330155303326861,1,1,15.937437099660874
197,197,6.913777584832657,9.951952020474229,1,1,21.909265847231012
198,198,4.637483767270895,4.152560848798274,1,1,9.175700675027612
199,199,5.600184819239573,6.557395277493566,1,1,18.018562427585167
200,200,4.482133214989005,2.173787107458598,1,1,19.733363393740618
201,201,8.299612077783205,0.2201163060769118,1,1,23.65522365952677
202,202,2.13824185842539,0.6992332369601828,1,1,11.580425961972887
203,203,4.00122608450217,1.6522657248587713,1,1,9.968334452096531
204,204,9.833412187688571,2.170516091745988,1,1,20.145779293266816
205,205,4.0095172758374344,7.953130940799539,1,1,14.438552822113326
206,206,8.87743088516657,1.5929112905739906,1,1,21.528347955732514
207,207,1.4719711714918193,9.83927947141477,1,1,22.11705985027883
208,208,7.550873182765372,0.8348517017842361,1,1,18.18298196204823
209,209,3.433572205317729,6.478535901340736,1,1,19.27993864705734
210,210,5.099161569830165,9.364186330661878,1,1,18.415154201433587
211,211,0.8663399986782905,0.03577716679915355,1,1,6.529885943170862
212,212,7.284863785495111,3.617014456953344,1,1,23.60196088556656
213,213,7.7372667882984345,8.14003688193963,1,1,16.27174832884334
214,214,8.761723162975585,3.025821774191929,1,1,18.81053787669888
215,215,3.3531791282787493,1.4907849544736018,1,1,9.3462718714724
216,216,0.14361743539818117,8.72940080210985,1,1,14.129779297869163
217,217,5.251574775965962,7.859871840257825,1,1,21.427911391180885
218,218,8.889258293461022,2.122775560948539,1,1,23.780164798165195
219,219,1.3539211018590935,6.094318720894659,1,1,13.21556052410601
220,220,4.0448844561607045,5.532606542886698,1,1,10.830156801826252
221,221,6.360292922941937,9.030768214810521,1,1,19.40943662536938
222,222,4.567177433586798,6.466952548025057,1,1,22.755637475040672
223,223,3.1774402819920056,4.491116599728667,1,1,14.496836239363248
224,224,3.5273688004390613,1.982318680163685,1,1,13.349253993197877
225,225,3.759212405024439,7.508227235926157,1,1,16.206291440956168
226,226,6.883786458491353,6.5605255379379255,1,1,14.69256920529855
227,227,5.589653033534901,2.69422600428896,1,1,13.753504534201426
228,228,0.5650122577413219,0.0,1,N/A,14.428778248891161
229,229,3.332274342125905,0.6544719689485756,1,1,7.383323762430066
230,230,9.899289412162828,0.0,1,N/A,22.704931644819077
231,231,8.9004263506134,0.7201968962570648,1,1,16.67258142700517
232,232,7.331116433699288,2.774178136092289,1,1,17.459816154678805
233,233,3.8586223949197773,0.0,1,N/A,13.62112072139358
234,234,2.232513259376381,5.6778478806844905,1,1,20.609098618089416
235,235,3.174374872099963,8.907624756030932,1,1,17.387088817128056
236,236,4.755192121423488,8.098814674288793,1,1,21.316222104996964
237,237,6.003313526209927,7.19806038242445,1,1,22.826700211392883
238,238,3.967069056953555,2.3268656787963025,1,1,9.985432279733505
239,239,5.093297483846778,7.24366078318954,1,1,15.248719241321044
240,240,9.370519521163384,0.6168066540001516,1,1,16.712696194752372
241,241,6.559219007641498,7.373268731411318,1,1,18.23841012946056
242,242,5.769535609219599,9.52265013295109,1,1,19.98754457870416
243,243,0.6196277627588398,3.359529107333008,1,1,9.029417090100404
244,244,1.4169752877097497,2.2629653070402025,1,1,5.320668076794064
245,245,5.720880123404354,3.78560799024251,1,1,19.57277087777007
246,246,5.915095157416484,6.303027701773849,1,1,14.043698923278743
247,247,4.785930152534217,7.032671056694517,1,1,20.38720927098479
248,248,0.3349095018878778,1.1981475100506411,1,1,19.246896624792683
249,249,4.564544151667304,5.5914436038763,1,1,23.913772967982943
250,250,7.775611500204044,1.5460946199106784,1,1,19.8534551655136
251,251,9.961001565262755,0.2850233829126647,1,1,11.606390720824578
252,252,4.480648237695255,8.436398870006862,1,1,21.97343583199752
253,253,3.0706118942251956,2.938329592084491,1,1,22.285115721878544
254,254,4.47205567695697,0.0,1,N/A,16.70470918177943
255,255,7.59699586264746,8.007163369951199,1,1,18.624925410495777
256,256,1.4560694334326552,0.0,1,N/A,16.434005186287923
257,257,9.175224259450834,6.953426151327021,1,1,23.06512375512201
258,258,1.7320882837773266,5.579932936121573,1,1,8.494470321568855
259,259,3.649838417209419,0.0,1,N/A,23.910096702564363
260,260,5.22114499186088,4.103003498320229,1,1,16.599026717110895
261,261,0.8754013456400878,0.4663715201628782,1,1,5.563942579594297
262,262,4.534277289089692,3.479747599275437,1,1,23.0077237816323
263,263,1.2382124421446572,2.5179849600041573,1,1,16.469519840156675
264,264,6.4440080122689825,0.0,1,N/A,20.874860781567932
265,265,3.9148223205248387,0.40995787268796047,1,1,6.382050437141605
266,266,3.618513588712502,8.819018296641358,1,1,15.878530926507208
267,267,3.22439894701776,4.7575168839016415,1,1,11.860097831303968
268,268,3.201745228999815,7.874258430402467,1,1,23.51931837612777
269,269,9.310090592370969,2.0070238524072295,1,1,13.585689049176407
270,270,7.049979294986125,4.816001542937977,1,1,14.376282950638892
271,271,4.817538109676855,2.262468351698861,1,1,22.012520349892085
272,272,3.5640893327700462,0.5296074822150987,1,1,4.194196245152767
273,273,5.471472192812041,9.453725718184687,1,1,16.72035213449551
274,274,7.84532020044964,3.3921144764455624,1,1,14.49319120913465
275,275,0.17631239890021577,4.165636736579508,1,1,9.851664020521113
276,276,8.363271608255797,5.711022208769406,1,1,17.70743462573987
277,277,4.049469297532168,4.7944959918894074,1,1,20.51980850207174
278,278,6.71257731609877,4.460139235057147,1,1,22.28948885364315
279,279,2.5572418105679007,0.0,1,N/A,19.260884645628707
280,280,6.360276394245874,8.465694455759127,1,1,19.62030838621152
281,281,0.28339391006145465,8.917305763898161,1,1,13.491912714553179
282,282,1.025801037953371,8.157054740403822,1,1,10.36761159778473
283,283,8.368982996014857,6.769545493563603,1,1,17.762968855059057
284,284,6.459155874041166,0.0,1,N/A,23.21540159424191
285,285,5.887945093936484,7.864068229265353,1,1,20.603652211814225
286,286,5.3760362981315275,3.075647695553566,1,1,15.669710678883142
287,287,2.048162188682684,6.373859968980389,1,1,16.270734933432447
288,288,4.1766139081068285,7.354679234041664,1,1,20.166382121990804
289,289,5.9010836933627395,0.0,1,N/A,21.38297315155024
290,290,7.286828866989605,7.5312419890319635,1,1,20.474761814927554
291,291,7.4591611026890074,9.667209349927678,1,1,19.44176516830554
292,292,9.655541579311173,0.0,1,N/A,22.211629763732613
293,293,3.4235067678303297,8.18222431992446,1,1,21.01540506661138
294,294,7.426224177794532,7.946791512734062,1,1,21.827422896318147
295,295,3.773591789553097,2.4412214132645884,1,1,23.854873005358442
296,296,2.560259720451729,6.181296755163995,1,1,13.039548949158718
297,297,6.525093944411297,2.3962117227198765,1,1,10.592213807061754
298,298,5.202680085753508,3.3754219110038344,1,1,21.59566318985678
299,299,5.829862391693654,1.0619245050969894,1,1,23.47897444003096
300,300,2.7277359198828552,3.6941663787999124,1,1,9.400201191839194
301,301,4.759889513764709,6.948163122169023,1,1,12.853808627027561
302,302,8.991265285207346,0.0,1,N/A,21.32296299536727
303,303,0.2936724883315389,1.1620601202233438,1,1,17.84621130558514
304,304,1.0920817440853359,7.200643021262723,1,1,21.783397019209186
305,305,5.930684001544812,7.88144115933911,1,1,18.476298160272087
306,306,7.199005833239751,6.0981971513265,1,1,23.14699971314413
307,307,6.818416741337594,2.825282829841732,1,1,20.447823111583183
308,308,7.783816871897859,3.26633575956925,1,1,17.00292278627158
