,Job ID,Stage-1 Processing Time,Stage-2 Processing Time,Stage-1 Machines,Stage-2 Machines,Due Time
1,1,5.370954742414083,9.691227633135536,1,1,15.404364403342182
2,2,0.046798311644067336,6.210874108113708,1,1,12.441517438176163
3,3,7.128829077442886,0.0,1,N/A,20.95542660947226
4,4,8.788952859035795,9.999318785947306,1,1,20.61621040735961
5,5,4.201681091736863,0.0,1,N/A,20.376354043234393
6,6,8.784774642768019,8.503230742953335,1,1,23.053286517120334
7,7,4.892978720092069,1.3646352615470392,1,1,17.8149506786956
8,8,2.336865140093302,2.655564009459055,1,1,7.131418384780366
9,9,0.5126171161593995,7.557317451562227,1,1,12.393151510892189
10,10,7.481418467286469,9.923713847350504,1,1,17.641260538445817
11,11,5.836863915377748,3.4607555867422066,1,1,16.827557570893095
12,12,8.055397926805135,9.650419766479777,1,1,22.736272138292108
13,13,3.8109345777592796,6.927397868820336,1,1,18.078122751567317
14,14,1.7040369239085273,2.784290326004487,1,1,11.65806774148534
15,15,5.4376536855424105,8.899903882132067,1,1,15.61278275099826
16,16,6.773579232598558,0.8414651223585567,1,1,19.59376933547406
17,17,8.381033553480673,7.259011775241425,1,1,17.794347791281613
18,18,7.675103290813591,0.0,1,N/A,21.931210500095816
19,19,5.180421216224959,8.549031894686136,1,1,22.62861548480766
20,20,6.428516115718681,8.650957748047373,1,1,19.983966385373243
21,21,7.423343474094528,8.753130723029637,1,1,19.910620192131955
22,22,4.093949305929688,1.474006833636965,1,1,15.936491877817438
23,23,9.179382839180697,0.9417987774307668,1,1,21.69583717007651
24,24,1.8176017960494728,0.0,1,N/A,21.81516128553356
25,25,8.395159833245083,8.414963134742809,1,1,22.823548565260506
26,26,7.217919688130215,0.0,1,N/A,19.30811576803521
27,27,8.033559521070407,7.288814924906153,1,1,21.96267046178032
28,28,3.531791849344855,7.243727855786556,1,1,12.027624562363322
29,29,1.240301706474699,6.577378639993965,1,1,12.03602294207616
30,30,3.153901636836194,3.6181675223808405,1,1,10.157947405653882
31,31,0.9787037338195614,0.05758192194772249,1,1,20.111576953378794
32,32,8.232881632325663,2.6071109133691026,1,1,18.965828316174616
33,33,9.69182381809434,1.4602069548899688,1,1,21.377183466529488
34,34,6.799859981478747,8.862270205587645,1,1,19.176718737103503
35,35,5.237454372683766,0.0,1,N/A,17.515927770949332
36,36,6.790570765648094,0.0,1,N/A,17.61988494799702
37,37,4.223190419894724,3.1998368252630915,1,1,19.272671075525892
38,38,4.9743452776742245,5.004509939235144,1,1,16.143231046682885
39,39,2.780837114415812,5.545447477259195,1,1,15.89367220689569
40,40,9.793852234188961,5.735972191111536,1,1,23.4556801132827
41,41,9.13370675062695,5.155056886366786,1,1,22.642388004892663
42,42,0.2631797286305493,0.0,1,N/A,7.893631748018524
43,43,9.404912696690952,0.6449780239952707,1,1,13.625178715235165
44,44,8.552526641874262,4.046337670255696,1,1,15.878196193989552
45,45,2.1805849251179987,2.748534598733184,1,1,17.057602254702985
46,46,4.373260571985988,6.245916489685922,1,1,13.133171011401943
47,47,7.913781082258349,3.0091009781121425,1,1,23.918429747990682
48,48,9.340605485741104,0.0,1,N/A,22.659782146024256
49,49,4.029859970234274,8.589221122746467,1,1,22.949998171244005
50,50,8.831194536399853,3.0762579578720626,1,1,16.923158618288554
51,51,6.460077353504329,0.0,1,N/A,21.90138326779517
52,52,2.1699638458168913,9.513109904338284,1,1,13.482965149398968
53,53,5.987634393169234,7.5579005119865075,1,1,13.592624192621363
54,54,5.676967177969652,6.491483209628626,1,1,12.84714769070533
55,55,8.4052478001416,1.548874539747952,1,1,13.11579330360409
56,56,9.317644057073597,1.8764842077084698,1,1,21.184463143798133
57,57,2.51722857541698,5.221280312479063,1,1,10.118211346790055
58,58,7.264197743784168,0.0,1,N/A,13.389091819301534
59,59,0.7680595437322468,9.50931776006599,1,1,16.114799440408827
60,60,4.968053916821265,8.495589767987198,1,1,16.92672937962457
61,61,6.103400195242075,5.342859094487387,1,1,15.778881218544523
62,62,9.607496245661501,5.838710733824268,1,1,23.88272321318223
63,63,4.619340552295746,9.38140007486315,1,1,14.775310703937151
64,64,0.265121578704971,4.103269346603852,1,1,6.788764332935992
65,65,1.620694466783833,0.8486629445877159,1,1,4.423161274918902
66,66,2.874609148579511,4.802202410897367,1,1,15.104461589856498
67,67,6.343425691707197,8.440772537468801,1,1,17.39511267382755
68,68,4.901958597846223,0.0,1,N/A,14.903201468665152
69,69,3.3380363215901356,0.8296685480580845,1,1,13.24593029949797
70,70,3.629208792032983,6.959984425225899,1,1,10.614415218030109
71,71,4.560273403900305,8.962389250614114,1,1,18.259104419020176
72,72,9.068542818568462,8.49068619986798,1,1,19.26953764435386
73,73,2.3128929998294434,0.13106906036786214,1,1,4.055062494657191
74,74,5.797983687849394,1.8993449646378124,1,1,12.899970198456803
75,75,5.311619580633806,1.622002993148286,1,1,12.920341965896437
76,76,9.49248414734685,0.790535563466751,1,1,17.525690433158175
77,77,2.145757882196464,8.720318363264791,1,1,14.889314839336926
78,78,9.51433676764431,9.646862069982712,1,1,20.125021295604757
79,79,2.5094174330902352,9.779948739945315,1,1,16.203570822647887
80,80,1.233027504588473,0.0,1,N/A,19.795883750767146
81,81,2.5411219497059467,6.418029177732857,1,1,9.633484873355044
82,82,9.95972797241852,2.4659209271119966,1,1,20.17483508041881
83,83,2.928496333549772,7.63998904379838,1,1,13.998974102849076
84,84,2.058129615418749,0.0,1,N/A,17.799179525773035
85,85,3.4909608017367724,0.8250124455260777,1,1,6.685620532926571
86,86,0.23885663879921637,0.0,1,N/A,13.82267791618031
87,87,8.84783588982741,4.099747302433336,1,1,20.63926375274416
88,88,5.505192182886609,2.847428281624922,1,1,21.592774586652226
89,89,4.169700209951919,0.4525172373206676,1,1,17.5331134603071
90,90,5.513481306869771,0.0,1,N/A,13.932151454176918
91,91,6.389713578213624,0.0,1,N/A,20.266343186457078
92,92,5.1479592160110315,5.676464611862841,1,1,23.335255241810483
93,93,3.6979436869731797,0.0,1,N/A,15.825252581785183
94,94,2.2707207180637976,6.607044870343298,1,1,16.507243428484184
95,95,0.3558030613258689,9.151825616740856,1,1,20.222780549438262
96,96,7.27764035543127,5.07305957808015,1,1,17.696339134736434
97,97,5.658824916654321,1.0373321924356638,1,1,12.774132945305464
98,98,0.4707195597210334,2.529346990614992,1,1,11.158595336853345
99,99,6.336593049186058,6.211125418272543,1,1,18.133036410056757
100,100,7.646060981962578,8.828842265116931,1,1,19.84623431760196
101,101,7.9312880616917445,5.731012715112158,1,1,16.592086388722446
102,102,9.122134131341216,4.246335241043844,1,1,15.690810891957295
103,103,9.025928633512327,5.305052579700238,1,1,23.612260614465413
104,104,5.687476491609033,0.0,1,N/A,15.294045495074979
105,105,8.696230005708433,3.7659310419411973,1,1,21.631089904225405
106,106,6.67410777390197,8.640322430607885,1,1,21.53475897567567
107,107,9.217146264918298,7.925252181140078,1,1,20.499794251957212
108,108,8.697545638045911,0.0,1,N/A,10.604745578174274
109,109,8.136412773477948,9.562101419717033,1,1,22.003684312413178
110,110,4.008566749259801,7.009312873542925,1,1,11.333938505207128
111,111,3.9958589693882987,5.49834428805802,1,1,17.23582215075985
112,112,4.678917710245589,0.0,1,N/A,18.178996951830197
113,113,7.402705249121303,0.0,1,N/A,21.43115266198178
114,114,7.138393249268502,6.493516953490407,1,1,21.25722770260799
115,115,4.589647080962189,0.0,1,N/A,23.77165747306034
116,116,1.8862544533776848,7.842585373019874,1,1,15.379605129362389
117,117,6.038796585934171,6.7487885496701425,1,1,14.163403656933216
118,118,7.993107264582066,6.6763618472119095,1,1,21.734423755930333
119,119,3.2579460135691996,0.0,1,N/A,13.396161770682193
120,120,6.544283964176385,6.768415460464822,1,1,18.530588658781973
121,121,3.5037102068591777,6.961565603573155,1,1,16.107592482242715
122,122,8.340366031663093,1.0057825078626559,1,1,18.109438589591008
123,123,5.340756845724815,3.8372239353041127,1,1,21.780425866246777
124,124,4.493646689574921,3.838081832417161,1,1,20.262555165262583
125,125,1.5999704713087637,6.258850820592894,1,1,15.72807099932728
126,126,6.6625383814442785,8.952625100887992,1,1,19.23654714212129
127,127,9.38661490251281,0.0,1,N/A,15.45458761695259
128,128,5.622810516411421,3.4646481342536237,1,1,19.953560405573462
129,129,3.437513619020204,8.422015701257996,1,1,12.116693699735144
130,130,0.8451052793780645,9.482349288556703,1,1,22.172132761059558
131,131,0.048597663970294525,6.92801057088353,1,1,10.772339364836041
132,132,0.7903004735597918,1.4239413520403688,1,1,14.144627520387155
133,133,9.773733986816026,4.494553071384885,1,1,16.018201146042248
134,134,5.355103370796455,3.4568199506781214,1,1,15.080144323076235
135,135,0.11149033892269955,1.6643356109706575,1,1,7.474733839293977
136,136,8.091686728178622,0.10141534561773025,1,1,11.307977217760504
137,137,0.7484692432102369,3.6227079031311824,1,1,9.375188971698602
138,138,2.0017460189905956,0.0,1,N/A,12.588982325409756
139,139,9.191864230039979,9.483007941283319,1,1,23.080589214660876
140,140,9.614822803001822,7.3669783315185615,1,1,23.786662682390162
141,141,8.765770196003192,4.525290936940461,1,1,22.565951050452696
142,142,2.7396085002606005,9.671540893840033,1,1,20.834354240605343
143,143,3.6785315460337964,6.191411886564029,1,1,19.08153894417021
144,144,8.36249184787927,5.6712068364946795,1,1,19.455663657208568
145,145,2.2482463151631116,7.225107686123779,1,1,20.5868921297973
146,146,5.2639569835501305,1.5738710413707657,1,1,7.459056824686174
147,147,8.543413515671594,3.669464648350833,1,1,21.312902557913752
148,148,8.330033853428223,2.2392797347480995,1,1,17.11205799895249
149,149,5.15170867264732,0.0,1,N/A,22.14955837366601
150,150,4.023793577216544,6.228500249936456,1,1,16.67771599675165
151,151,2.262372107946974,0.0,1,N/A,20.358636578136093
152,152,7.067997501899987,7.202615418800809,1,1,17.44319997360536
153,153,6.8464159965186075,7.860584652848177,1,1,16.264004467783277
154,154,7.309533323458709,3.7479070158184014,1,1,23.414263271051908
155,155,4.504179706354135,9.783437507224729,1,1,22.842459970163
156,156,1.4234078482802204,7.311052740189216,1,1,13.035052078659383
157,157,8.783693585953804,2.803600556285887,1,1,12.253181549506994
158,158,0.773651861496969,0.0,1,N/A,19.3910610978414
159,159,4.621634164319984,4.561857502738905,1,1,17.17838393378167
160,160,1.496736469918254,0.1520118022353356,1,1,9.646342293566018
161,161,9.980444168964032,6.87231558607336,1,1,18.886092950879895
162,162,8.481134245975962,4.256002630634816,1,1,22.48630762949241
163,163,9.428686570161695,1.1746694324715945,1,1,11.023279893032758
164,164,3.3209422775472666,5.598883773179183,1,1,20.691994980752938
165,165,3.2789208114910617,0.31294625118427843,1,1,10.2852586970276
166,166,4.7282707341958465,6.657497844160519,1,1,15.327558757220459
167,167,7.069082063002475,8.641944708325253,1,1,17.654233788771535
168,168,7.731082065134039,3.33524918583361,1,1,22.885005615291572
169,169,8.477509446403829,7.014004921994107,1,1,22.869331472630734
170,170,4.35631834575378,3.682386223191773,1,1,14.475508142014023
171,171,9.242950177938408,4.535092859973369,1,1,16.390047745327344
172,172,6.711004052955393,6.0292091270950445,1,1,21.801785364258148
173,173,7.1837022948112175,9.377271964544695,1,1,22.03638897785197
174,174,6.285907442182114,0.37679364865115583,1,1,6.680742199007968
175,175,4.590620195170012,5.733625915971276,1,1,13.659431324929779
176,176,6.819924922509526,3.524818357894776,1,1,17.917680457997346
177,177,5.581229606179177,0.0,1,N/A,15.742991178310508
178,178,7.006786832924914,1.8368308720849225,1,1,20.658657669415987
179,179,9.815452958015324,9.682290721386112,1,1,23.711261345069317
180,180,1.3873166402818682,2.7740952990408276,1,1,18.686256913463932
181,181,2.0391254691753966,1.713683317185144,1,1,7.807317876488936
182,182,7.926622884334699,3.926546740850058,1,1,20.535252704386195
183,183,5.038877426101903,0.0,1,N/A,13.321555401394374
184,184,1.8239055724423314,0.0,1,N/A,10.321272091329536
185,185,9.115968876259949,2.8431055681264503,1,1,21.274137694801414
186,186,3.418856265737408,1.2710419579175214,1,1,17.17599849529663
187,187,0.21064769677379802,5.172814931252544,1,1,11.219995433123982
188,188,4.95071377365234,8.754939397790348,1,1,15.273434181138086
189,189,9.196010690561474,3.708872952493399,1,1,20.412693912052312
190,190,5.630133779043193,0.0,1,N/A,14.395736561643876
191,191,2.51536575953736,0.0,1,N/A,12.939436889545878
192,192,4.538876776006294,0.0,1,N/A,11.598877600270367
193,193,2.012561648496196,7.762176447875299,1,1,21.104443959571306
194,194,1.7987313757853785,7.995168288582256,1,1,21.834288886648025
195,195,1.0054167641320044,4.160791629830811,1,1,22.922504929631053
196,196,4.7829644570694025,5.000045787805057,1,1,22.761111652870092
197,197,6.6469127404935735,1.7927348105170238,1,1,9.449698151593507
198,198,8.632475783055183,7.789396990341708,1,1,17.426093430400037
199,199,2.463232313713565,3.813450872929378,1,1,20.139623326018377
200,200,7.039367387817354,9.943208779640582,1,1,17.806100123603624
201,201,4.475766155874404,0.0,1,N/A,14.123425744204134
202,202,3.4129347698840995,1.591125511969117,1,1,12.279663049910564
203,203,8.596463141033462,9.09742588956977,1,1,18.323976894320655
204,204,1.4937452775634996,3.0757776145272295,1,1,8.372462402107505
205,205,2.2391868269430484,2.888973109392187,1,1,11.742514302601212
206,206,9.0640045298465,0.0,1,N/A,12.659478647331053
207,207,8.174185344641183,0.0,1,N/A,19.11397639930819
208,208,5.4610861036602305,4.540776303350756,1,1,20.009163644410407
209,209,8.080499236859504,3.1534198065258403,1,1,15.483851618237473
210,210,6.687552004955003,3.223947215867647,1,1,18.011792174307466
211,211,5.660464677221003,6.663605737733638,1,1,23.4159117826538
212,212,5.159350253042655,2.3596147569270185,1,1,11.117745638479747
213,213,2.792201130161379,0.0,1,N/A,9.102395496123307
214,214,8.608788210550578,9.416442219030563,1,1,22.778458010591965
215,215,8.928767212570891,0.0,1,N/A,19.69621289789363
216,216,2.8566610423328695,6.652280822098495,1,1,19.5262303617426
217,217,4.310343550679644,5.65129571883096,1,1,12.352831982624114
218,218,7.316944334445836,3.5087919331715254,1,1,12.736043546255358
219,219,0.6996734088926237,2.4808765703448055,1,1,12.43620899843588
220,220,4.047037421829739,0.0,1,N/A,14.359157878192686
221,221,7.039709065167554,1.1925376466346516,1,1,13.003401542206849
222,222,5.847538501070923,7.180824815771762,1,1,15.658951959765627
223,223,3.4702805169879025,7.02860984099301,1,1,21.653596153668417
224,224,1.9609116920716152,9.94110359064006,1,1,12.491599650280772
225,225,9.36613209038748,0.0,1,N/A,21.287393435198446
226,226,6.917118694142235,0.0,1,N/A,23.192650509778304
227,227,2.6181128033724077,0.0,1,N/A,21.00391565102705
228,228,5.073923254179375,5.432244239269552,1,1,12.537073974956737
229,229,3.782905570216397,5.442010385395555,1,1,16.985518842777417
230,230,3.545418324414946,0.0,1,N/A,22.180978330376423
231,231,5.15578728946644,6.213082753944557,1,1,22.7859346087236
232,232,1.1937048419195828,4.807067994587921,1,1,12.047617007257742
233,233,2.302957523336641,7.580131357839846,1,1,16.43861659305134
234,234,9.160132497884911,5.54678736998869,1,1,23.37486247086069
235,235,9.251291041620167,5.368652657997589,1,1,16.888879876397027
236,236,5.359089816848943,1.1858740757794484,1,1,13.533022549261121
237,237,8.3657396166255,0.0,1,N/A,17.517495598466233
238,238,8.926862028134762,9.872371963715372,1,1,23.578689507009827
239,239,5.433113955910338,0.2800902829250862,1,1,21.746831888960582
240,240,6.35607877226943,0.06931967853600618,1,1,14.537948561674497
241,241,4.105630974331911,2.2323433371113777,1,1,12.647195286069678
242,242,9.16555628067606,1.3641759505397566,1,1,18.30558358135481
243,243,8.535947700119733,0.0,1,N/A,13.266065323428911
244,244,9.817235157525111,3.594271537156757,1,1,15.425293931996032
245,245,8.912361081896634,5.521662379253356,1,1,19.386708262936473
246,246,1.3794841285695847,4.944209448676976,1,1,7.4156906048799955
247,247,3.2960029181194628,3.829329097171603,1,1,14.468391022777205
248,248,5.2139198171182235,9.89325558207164,1,1,21.850730182109476
249,249,0.7726360475259819,1.9324268320099613,1,1,6.085410617382825
250,250,0.5613134400075037,5.778589884970316,1,1,18.244268084109525
251,251,2.3335930271478555,0.0,1,N/A,16.388205276793155
252,252,9.478653910388392,7.256016450529322,1,1,19.847671461036704
253,253,8.810853129113545,1.701318104326679,1,1,20.317304832741414
254,254,7.330784610695208,4.15522476392971,1,1,20.920606856224783
255,255,0.015510407980217078,3.6195532814026965,1,1,9.461297278240018
256,256,5.35381073135694,9.20964895792346,1,1,16.048091875438924
257,257,3.1196125676788666,8.365617182908649,1,1,12.180093549809143
258,258,8.80646088994338,3.01542260217736,1,1,20.324297457756035
259,259,8.069474559768375,1.0720011991514233,1,1,20.382721082779383
260,260,3.0950296604735303,7.375435884340559,1,1,17.55796253555484
261,261,7.212776654639957,6.302275200911302,1,1,23.071843110201698
262,262,7.330757376432322,0.816155179343111,1,1,21.942555720274427
263,263,3.2004964155968763,1.1058584691276208,1,1,6.297072405649584
264,264,8.017941683032204,7.811602928437784,1,1,17.61737711693437
265,265,4.278785158460739,7.05609187884688,1,1,18.943059271842504
266,266,3.0240990692228276,3.4083287541867158,1,1,22.612812874727467
267,267,6.322542730202684,0.40148235649495545,1,1,17.737726730574014
268,268,4.0737939315286695,7.454445908665001,1,1,17.216697408089384
269,269,0.6801327219574849,0.0,1,N/A,10.28942529069597
270,270,0.9569706896529984,0.7097803526477309,1,1,19.382716479653595
271,271,3.132340369432468,3.462428967761549,1,1,9.102344583961411
272,272,9.479602003079478,5.643352819021882,1,1,19.05948601852628
273,273,3.622812336761263,3.5136213011123685,1,1,19.39115636610844
274,274,9.523384707665459,3.2517318750249222,1,1,18.663662395650707
275,275,4.970638104281263,1.4979717072170184,1,1,14.67999957428565
276,276,8.363798352544144,0.7483222238102283,1,1,20.36391484657455
277,277,5.422620435492713,7.556280582928365,1,1,14.321859059055551
278,278,4.1195072756841045,0.0,1,N/A,22.60345987096707
279,279,8.26345561859014,4.204735919335506,1,1,19.992530254383432
280,280,9.554855689968978,6.355920237151818,1,1,16.085866884880424
281,281,0.6519845742498853,2.1672302770931595,1,1,16.943978306835824
282,282,5.5400420523283795,9.98790182574329,1,1,20.0240565130957
283,283,9.929221134434913,3.5726416731736235,1,1,17.621221640091097
284,284,3.852149478040916,7.101896794187256,1,1,16.89954872581523
285,285,6.198538526689781,5.148411302910111,1,1,23.06904913900587
286,286,8.460767173599894,0.0,1,N/A,10.757255365789437
287,287,8.78279744188141,1.5577708855490624,1,1,21.070625494720247
288,288,0.061353041020745236,6.498201586153303,1,1,20.448740052807707
289,289,7.184345062581584,1.802380500343802,1,1,14.214280698755925
290,290,6.73492814763586,1.6477197099881713,1,1,21.5880859385895
291,291,8.046374485139665,3.315089971925431,1,1,23.732332314824504
292,292,6.813507907528695,2.6038978459508666,1,1,19.690713587650734
293,293,8.449352759944901,6.593872379238763,1,1,16.82822742717231
294,294,8.092821086246593,7.4558175947326095,1,1,21.754763876176504
295,295,0.2723056709720362,9.030855693112835,1,1,15.089141804182045
296,296,7.377176191235689,6.463370677957338,1,1,14.59606671446476
297,297,7.002465361185326,8.24713995286708,1,1,22.608345802293663
298,298,4.64921645838246,9.40427110005111,1,1,22.991470141329003
299,299,0.775321373933171,8.158604975465861,1,1,12.175367350565066
300,300,4.576395132933584,0.3445167410254002,1,1,18.46328243177824
301,301,2.8825677311716125,0.0,1,N/A,18.840665210042427
302,302,4.027841642808948,8.24743377191923,1,1,23.58282893007567
303,303,0.18349030670206656,9.907911736098388,1,1,15.276986737480247
304,304,2.6666366885754025,0.7153421097916912,1,1,18.81097126841955
305,305,5.543253860936092,6.550556453385746,1,1,15.714185775384614
306,306,3.6114127898503545,3.999231476175482,1,1,20.34133762899461
307,307,8.215222840046126,8.647102406555792,1,1,19.428988200021035
308,308,7.494118010349657,8.315234449979448,1,1,19.847079176345357
309,309,3.661904786889286,4.022233949485363,1,1,17.871277554304648
