,Job ID,Stage-1 Processing Time,Stage-2 Processing Time,Stage-1 Machines,Stage-2 Machines,Due Time
1,1,7.630707348669105,0.23145294868546662,1,1,11.21970493380229
2,2,2.8733104664943165,8.249370840792656,1,1,12.642464620200455
3,3,3.9555962549928148,0.0,1,N/A,17.97578024610287
4,4,4.705792187995343,4.818231831160993,1,1,10.204855050328828
5,5,5.667042338653509,3.7625609781030622,1,1,14.642822349005453
6,6,6.281110516264149,0.7222139679248052,1,1,23.387717635690475
7,7,4.104526170711793,0.0,1,N/A,14.55912539532546
8,8,6.111260652670265,7.00246822262081,1,1,22.564957204902992
9,9,8.50636737407593,4.9710221719888805,1,1,22.212849351774757
10,10,2.439986219520185,5.210688433528041,1,1,18.367517577453896
11,11,8.694147942866355,4.266958274296431,1,1,18.033406400053945
12,12,0.26658171725258306,1.9635757006440024,1,1,8.696133626767004
13,13,3.97584332304557,0.0,1,N/A,13.29377574499512
14,14,9.126270791292686,9.126699686790651,1,1,20.963151792299378
15,15,5.676160241241308,1.6505855089171617,1,1,16.753076299031548
16,16,5.705004966449966,0.0,1,N/A,18.050076483498216
17,17,1.9479814240931348,8.472509640443564,1,1,11.578033236536
18,18,4.495063447085181,0.43652929878855495,1,1,18.544240855193866
19,19,9.625963659364743,1.9413246621578018,1,1,22.20279247367938
20,20,5.731138636477553,3.4511147689290156,1,1,15.147586997500362
21,21,5.635965333494553,3.5218501565212614,1,1,17.853149521800574
22,22,8.069734558637858,3.1104007773885756,1,1,21.872098965379376
23,23,1.9079628089012501,4.489603340431206,1,1,15.999264494616039
24,24,5.9289423819364515,1.194353024153657,1,1,14.7828442105911
25,25,6.343502219080184,3.711512081130958,1,1,15.181576922424536
26,26,4.248085958357192,7.154645085127957,1,1,16.458002691380543
27,27,0.7875390433690987,3.1749322466290018,1,1,20.150391526737792
28,28,8.159165753975875,9.181869598017954,1,1,22.210051555731816
29,29,1.8200570329058485,2.0735268843320256,1,1,6.7964420164405395
30,30,3.750578545391061,7.108511711424144,1,1,18.92358909744418
31,31,2.738363603705889,1.2174830123072522,1,1,21.644271886949667
32,32,5.627914497701702,7.51710260588383,1,1,16.33690441841668
33,33,5.980829242593423,9.320575784975745,1,1,22.73834876503484
34,34,1.300452891730155,0.8526981765848896,1,1,13.831546766217578
35,35,7.305166811446878,0.6151291308590146,1,1,16.93842939949685
36,36,0.5023049569429927,0.0,1,N/A,8.337949756457425
37,37,5.164516060521477,0.0,1,N/A,18.23398672503499
38,38,5.476374840361268,4.801173827133112,1,1,16.217830932336998
39,39,2.14047767256496,8.962225240622436,1,1,15.420331154431839
40,40,4.612125905408883,2.505311081833889,1,1,18.645175725895
41,41,1.7374178039190613,0.7185206876845673,1,1,22.950154826742455
42,42,8.292004289074715,7.640949083865688,1,1,20.672902277852884
43,43,2.4063438890254787,4.139601851152465,1,1,16.135691221095176
44,44,3.3272369431368585,2.0516829931868283,1,1,10.882478407596064
45,45,3.444215567429257,3.2835389820523875,1,1,21.36321752089374
46,46,0.7773958428713779,0.03590949366546359,1,1,22.958635334322643
47,47,8.673224601450668,0.8836612588561521,1,1,13.180683277725837
48,48,8.72657563059056,0.0,1,N/A,22.205095331945124
49,49,0.6895880926522391,4.2879820234482064,1,1,13.687174257762251
50,50,2.5584802213214317,0.0,1,N/A,11.225951830180213
51,51,4.968465520927419,2.7162026391494285,1,1,15.946811831459776
52,52,4.109862643596426,2.252795463775097,1,1,9.73321357887324
53,53,5.327557625812508,5.062196338775986,1,1,16.210188168088866
54,54,0.5390020068342405,6.848644536298667,1,1,10.886665786497975
55,55,9.99047711526197,1.7464625778245035,1,1,21.80923980784143
56,56,9.804851234198438,5.556456066156416,1,1,17.28941728579168
57,57,8.230936385059687,8.123906749513992,1,1,19.445217636195046
58,58,9.175993556532987,0.0,1,N/A,15.346639825275313
59,59,2.3485263861599073,5.491599401083812,1,1,8.267471881511018
60,60,4.968418409152479,3.7765080854836794,1,1,15.150807489165654
61,61,8.392799986838092,5.370779136654027,1,1,22.19210700817657
62,62,7.478024558600489,0.7560259581769224,1,1,18.454738887777125
63,63,5.702737601600387,7.188407473775806,1,1,17.28023324978286
64,64,0.956181743011083,0.6077155502916898,1,1,20.608916542933926
65,65,1.7559189136064568,1.842488083060797,1,1,11.736556900556597
66,66,5.030410219437843,2.5854952987625412,1,1,8.085943393395002
67,67,4.801072960342941,3.827020284928028,1,1,11.3955998720302
68,68,7.170708464872253,6.200420775463474,1,1,13.765690289470086
69,69,6.49970543924434,8.195187998037142,1,1,22.243628750886042
70,70,5.660589674163873,2.0534620520125726,1,1,17.894786930832847
71,71,4.393003193318769,5.511623025600773,1,1,13.308450510666304
72,72,6.521872758598159,3.8983444924749766,1,1,12.037272866901665
73,73,6.514754649457203,7.577003277194948,1,1,14.977117310334489
74,74,7.240067847538555,5.162824778704548,1,1,12.6729175041651
75,75,9.92587675533529,0.6761504539010943,1,1,13.518480049099235
76,76,5.920096197279929,0.0,1,N/A,17.505299260748977
77,77,3.0377433775259997,0.0,1,N/A,18.988349532387566
78,78,0.9594834347837178,0.0,1,N/A,13.131166256512424
79,79,9.223698018485592,6.909110030805596,1,1,22.652693489149588
80,80,7.317572381991661,5.2759962084865535,1,1,18.182912204037255
81,81,4.350484312291329,7.475987572560917,1,1,20.316101682500737
82,82,0.1933324673743564,9.991426795559589,1,1,21.81397364142645
83,83,9.388098722651732,0.0,1,N/A,16.33668077500994
84,84,4.066969909439402,2.872941296853827,1,1,19.606407443438417
85,85,6.086944149442087,8.742513311261911,1,1,15.219952529053408
86,86,5.6038893151664375,3.579866795354797,1,1,16.96205351624904
87,87,5.869972293329363,9.103322886215203,1,1,20.789170189554305
88,88,7.575071327483963,0.0,1,N/A,13.55246138318634
89,89,6.159737409002597,3.1064842380320368,1,1,17.001614269880545
90,90,0.1761225541352096,1.1889441124277533,1,1,20.334912860695564
91,91,9.156027541763926,0.0,1,N/A,17.32460654226972
92,92,0.6013793653373101,6.4281034625243025,1,1,7.803248738841187
93,93,4.24525757606804,0.0,1,N/A,12.36466982484208
94,94,9.769537914984808,5.038377673991192,1,1,19.51561324947676
95,95,7.9564658211648105,0.0,1,N/A,17.19268342767002
96,96,6.241113619913275,0.9140722039662597,1,1,16.873516651235885
97,97,4.326182453331731,0.7403438734687939,1,1,16.562696463344082
98,98,9.611241141017317,7.706822231096541,1,1,22.578432357774545
99,99,9.843687828203144,3.4262037534861634,1,1,15.60286624084674
100,100,9.254288734167325,7.714772895022982,1,1,22.358161354346745
101,101,8.917049404770271,7.539105189678057,1,1,23.994816207777593
102,102,5.263060051058285,9.769080196766984,1,1,15.799176867447107
103,103,5.041305427524199,9.6310348149164,1,1,14.815985584626729
104,104,4.396224904305745,9.230663643183908,1,1,21.888857224763154
105,105,3.3595284921122834,6.730793520710274,1,1,15.870272770395216
106,106,9.546250353910699,7.45287547985787,1,1,18.762910449298627
107,107,2.777029635680649,8.805355577226866,1,1,15.790988123537357
108,108,6.64762485628633,0.0,1,N/A,12.745853459380811
109,109,2.5657836681824495,9.723339456305007,1,1,15.651519254033209
110,110,1.4372810128598634,1.665555343058811,1,1,18.68291122081913
111,111,6.031615467152233,5.209460131288557,1,1,18.147040356284514
112,112,4.050683829308337,9.07470297190878,1,1,17.525921218506564
113,113,6.301400060181424,3.0660874740789845,1,1,14.33583434221265
114,114,6.554362988841297,0.0,1,N/A,12.628809520589646
115,115,3.8412175798263837,6.402881679691321,1,1,17.241858911594036
116,116,9.592033272498554,8.441364326172549,1,1,21.13084250261431
117,117,1.6221413016911301,0.0,1,N/A,11.51610724614593
118,118,4.8055918950351035,5.443372256254593,1,1,21.021952486339444
119,119,8.275858964047325,9.491864016952974,1,1,18.29749950221113
120,120,7.944797476576481,4.390907541512804,1,1,22.887151088972107
121,121,1.258526834076149,0.0,1,N/A,19.438170844917956
122,122,9.403502007096767,5.329474112101391,1,1,20.061313044852113
123,123,9.098513806860225,0.8638242086078107,1,1,11.612893123056585
124,124,5.570970604487341,2.17486336128075,1,1,18.34087256040345
125,125,1.5223494222189038,6.16146154612899,1,1,10.411378146798604
126,126,9.440675121293928,2.0827013388050863,1,1,17.78442572720611
127,127,6.627152878927076,6.816852773463168,1,1,15.439956729394806
128,128,5.3270801860022665,2.612958636855404,1,1,13.505531565471255
129,129,0.43260529364976374,0.0,1,N/A,16.79783796236316
130,130,5.682090941524404,5.216512334442763,1,1,18.555903564203696
131,131,5.83801946086786,2.3404150575137384,1,1,10.029594165398407
132,132,9.243917543587834,0.0,1,N/A,18.941015905716604
133,133,0.2558835516777047,6.877820121817319,1,1,14.957236119577324
134,134,4.491077129207634,0.0,1,N/A,18.681915283837803
135,135,4.813434074037833,5.320678391407203,1,1,14.45188689997346
136,136,2.4775848649679544,0.0,1,N/A,14.916633804747558
137,137,4.0546707779375035,0.0,1,N/A,23.52072042566988
138,138,6.100338950600175,0.0,1,N/A,18.98382952925662
139,139,9.689189784189683,2.3831400835260186,1,1,21.08640356331965
140,140,1.6184042127568887,4.3464750508732255,1,1,8.760097203711187
141,141,2.2262402514032376,4.969910622067491,1,1,21.25299185509239
142,142,5.902768275301965,1.5296240292642882,1,1,23.141647250392413
143,143,0.6236965950626816,0.0,1,N/A,14.464256538124136
144,144,7.8428092479889475,0.0,1,N/A,22.726327596745318
145,145,7.296948692024507,3.220003042576894,1,1,19.680231930408013
146,146,8.43260671552673,3.378186276562473,1,1,13.138105825826766
147,147,0.18929824978294096,3.9550155204156656,1,1,17.96074305613952
148,148,4.534733207936278,2.545848768411058,1,1,23.677531492104396
149,149,1.4596419574043629,5.756110670632134,1,1,15.721273692267527
150,150,0.9045603625282128,0.0,1,N/A,20.16361923358654
151,151,4.570176505973387,8.534366575802038,1,1,23.378170143816888
152,152,5.144382109033298,9.337378454088068,1,1,18.76057892857529
153,153,1.7672508586940627,0.0,1,N/A,10.057726714113677
154,154,3.0366498874940917,2.9004726198477537,1,1,12.651364292752309
155,155,0.0016362294934213484,1.6938180732019248,1,1,21.547111792219923
156,156,7.512517252962118,9.613310400534319,1,1,18.602265327783062
157,157,7.3123629397328855,5.173097222364156,1,1,23.588154022589926
158,158,2.9536373920203687,2.8975487653139167,1,1,15.55859970424136
159,159,4.945111637370859,0.0,1,N/A,15.967151665189446
160,160,9.009952398263806,8.259761237781824,1,1,19.463321256617736
161,161,5.678071191123282,0.0,1,N/A,11.608775333632684
162,162,6.650891580390405,8.254981000623237,1,1,16.8687598100066
163,163,0.7740128717630823,7.863867054979128,1,1,21.855416978603394
164,164,1.1454462778009489,3.5592421701007817,1,1,11.53509416278644
165,165,8.764463079724475,0.0,1,N/A,15.908997359471998
166,166,5.984383510108455,3.26983037358342,1,1,12.816286425716624
167,167,6.704058998134281,5.108301646128631,1,1,23.835554567720756
168,168,6.245885029797372,5.206273635973105,1,1,21.566527561030263
169,169,7.983587968417277,1.61943779304909,1,1,9.737823937906507
170,170,7.230630568903243,0.0,1,N/A,20.78924988965001
171,171,4.405932589968378,9.541869261949222,1,1,22.855951426977114
172,172,0.19762206024572238,7.30300620902829,1,1,16.76541245414538
173,173,9.991445850904853,3.83769726338877,1,1,23.277668683554005
174,174,4.283139364759851,7.751283047473427,1,1,20.157288814559333
175,175,4.0623729024366,0.6430478181330268,1,1,23.60404217522194
176,176,2.593293522826685,3.91582674679304,1,1,15.259929792107059
177,177,7.277780072853086,2.014123099316719,1,1,12.359555607408028
178,178,9.23770184030259,6.128807564352491,1,1,21.534819160885927
179,179,3.2848137595206097,0.4605873339046418,1,1,22.520815346108765
180,180,5.192631715592961,0.37176946145247247,1,1,18.912892543528024
181,181,0.999457540794868,3.1586917844505704,1,1,9.667550114249867
182,182,8.375690680644425,6.540192791739957,1,1,16.80409650260025
183,183,3.8076066086092295,2.759185521276323,1,1,7.502870772023092
184,184,2.9512253456320527,0.0,1,N/A,14.072538773251885
185,185,6.6531673872443555,7.0986562340556025,1,1,19.87445192701225
186,186,1.166536429584235,1.0518862678264185,1,1,4.796885423910655
187,187,1.7673412628199625,1.3758721091566206,1,1,15.312449464940258
188,188,0.6335836009084572,6.921099424825927,1,1,23.554646827991263
189,189,7.199088102743142,0.0,1,N/A,19.144557507818174
190,190,4.162005163674266,2.723039824401435,1,1,15.753619055902998
191,191,6.807078901241402,5.802072778833365,1,1,13.54768522216252
192,192,1.6630142915216894,9.905751041385658,1,1,16.54639322205874
193,193,6.692969113876549,8.392483850576621,1,1,18.804849717680906
194,194,9.268390133187026,5.727118002338566,1,1,22.064524454322147
195,195,2.0342978977875434,0.0,1,N/A,19.18939245293933
196,196,5.16293809871113,5.131857855944938,1,1,12.430683718285001
197,197,0.2649219167995287,4.752998070427146,1,1,13.81186386534482
198,198,8.709310529045663,3.2605171617458026,1,1,21.842786065446965
199,199,0.22322148571164102,3.5027282541797176,1,1,7.849218218331714
200,200,6.892810523446272,8.197370346911185,1,1,22.425904283959866
201,201,7.265790480401119,1.9984154059633241,1,1,9.49675181644766
202,202,4.6183177469305985,7.032843767248226,1,1,12.522673867551507
203,203,3.9346023477033985,0.956609252306938,1,1,12.045511517542568
204,204,1.908664958104359,2.5609310837386245,1,1,20.814342302412893
205,205,1.9523760907027943,0.0,1,N/A,9.343740268938946
206,206,0.3507315343365569,1.0041480741155073,1,1,2.672215182953892
207,207,1.0640742760745836,4.357933629284856,1,1,15.475227282884388
208,208,2.24827733497853,9.268838956691857,1,1,22.2789499720201
209,209,8.7621145497609,2.348844322555743,1,1,20.96371135133181
210,210,1.7429513641484973,0.0,1,N/A,12.16853575075072
211,211,2.9374668329712685,8.49377777734601,1,1,12.91780101250287
212,212,6.943603458422962,6.552509209441643,1,1,18.202199523747005
213,213,6.690364441448472,5.575039840009053,1,1,21.77765963224187
214,214,0.6613679338407741,9.012456103962503,1,1,23.096101329618286
215,215,6.986437167180619,4.5122573254406495,1,1,20.14176357141855
216,216,6.66418424152917,3.512823750935834,1,1,13.653697934043134
217,217,7.252937685342316,7.092612088664704,1,1,16.517738832002603
218,218,4.046355907581899,8.459146329307861,1,1,22.639693730440072
219,219,0.6634343986148783,6.057068519222386,1,1,9.325008026602445
220,220,4.643880142074941,2.71108421531932,1,1,15.701894593500551
221,221,7.711364697370607,7.467774572114363,1,1,18.365888269431476
222,222,5.639452058098817,6.575253462174145,1,1,14.843908400365358
223,223,2.9409939463963433,6.032149662853342,1,1,20.179534511525354
224,224,9.366954967112171,2.1657812237050535,1,1,13.819406838889094
225,225,0.3879682456915723,1.8866674035890574,1,1,20.870605029407585
226,226,1.5607386179613214,4.775928489870918,1,1,13.774383514837059
227,227,1.0875927138905028,9.66756523924581,1,1,23.387312929721343
228,228,7.042829577151589,9.02459498483465,1,1,23.716273949473756
229,229,1.5423930489146565,1.5329657859521295,1,1,21.152936363576924
230,230,9.227584656584774,0.0,1,N/A,23.176249799650392
231,231,1.7831196639308466,1.601729619986113,1,1,21.24641776918844
232,232,3.6177813756938604,4.248278030917888,1,1,15.505910354227314
233,233,8.871205917938974,5.946171554794767,1,1,15.754299401108694
234,234,5.413432833198967,0.0,1,N/A,14.854372922727482
235,235,4.859277386465253,1.6494919979318634,1,1,11.533250116458687
236,236,0.40380969337073913,2.8771770215987056,1,1,15.192252896254995
237,237,8.157180857683231,0.0,1,N/A,18.092874444726398
238,238,9.561973037085753,9.959969433220765,1,1,21.520719216770093
239,239,2.5064563149833585,1.1246002532041788,1,1,23.434438260055153
240,240,3.7178792923416437,0.0,1,N/A,17.26031644563894
241,241,7.324332234686519,3.1182338362865822,1,1,16.611813289684044
242,242,1.7811736298971004,3.9436635464700966,1,1,21.503329563128755
243,243,3.692651406411515,0.22664822280459962,1,1,9.35891588363708
244,244,6.8147671939486845,7.703521389248421,1,1,15.567024458895398
245,245,5.365306491864067,2.6719006267317438,1,1,19.849469197151322
246,246,5.234953168687109,3.735444761618746,1,1,12.457083295754346
247,247,4.356369240529845,7.250372477036187,1,1,18.61817208431191
248,248,5.228730437558817,3.1411764402628597,1,1,15.908175371898068
249,249,1.1193866795701202,0.0,1,N/A,21.268743294964114
250,250,8.298107048253085,4.471657660814884,1,1,13.78933297683829
251,251,1.0987616250901366,1.2540888612639822,1,1,11.752756398356926
252,252,4.2165539643753345,0.19676118480241978,1,1,10.619623101389472
253,253,1.5177855663921913,3.7265283051597873,1,1,11.716030812788212
254,254,8.403676947637297,3.1760240915544857,1,1,12.799413217051812
255,255,9.457079400832969,4.782214661347636,1,1,22.079632179343342
256,256,6.1879389306728925,0.0,1,N/A,9.136081213853265
257,257,5.62495373665255,0.0,1,N/A,15.904316639497821
258,258,4.559148738217552,0.9237888874596678,1,1,20.876190322928373
259,259,7.96166800868566,9.87855234076914,1,1,20.02883801774797
260,260,1.2339951528049575,1.4903772567666573,1,1,17.321430280339783
261,261,5.46150847908605,5.764281758645432,1,1,12.976998003914774
262,262,0.4224275407204503,2.6883495991100395,1,1,11.615310294005639
263,263,9.154520524892243,2.8318949745009148,1,1,20.524372643886515
264,264,0.6907934946247485,3.538834906829762,1,1,14.882660765404964
265,265,0.9047563379371237,8.109520364530615,1,1,10.537647432318723
266,266,2.179948452438002,1.1939918868549004,1,1,14.666467707691545
267,267,7.871074367093676,0.0,1,N/A,23.122513772795493
268,268,4.502407281766477,7.559688098064031,1,1,23.81196346461772
269,269,4.347965169395148,6.231241038203543,1,1,20.24654038392146
270,270,7.626667309409923,0.7312021083861453,1,1,11.638688754405841
271,271,3.8351500486676438,1.7684822924241184,1,1,6.6876164488537455
272,272,4.262266797828298,2.4156320551349806,1,1,13.252943157299711
273,273,6.800491458756884,0.0,1,N/A,18.39024850891488
274,274,4.970097455216117,0.0,1,N/A,23.478971960384577
275,275,7.908351022508287,2.1764947349423425,1,1,16.979376056706705
276,276,3.5325679084100536,7.2388291834075735,1,1,17.410311624756012
277,277,8.15931532537401,0.0,1,N/A,15.560667893492234
278,278,8.162765504123463,6.617020068095685,1,1,17.735211352256695
279,279,6.892408995669198,6.079980820714042,1,1,19.348537704195483
280,280,4.954958349407105,5.407633596914021,1,1,14.934594421476287
281,281,7.971012570450759,1.3229751464863226,1,1,18.069201207177855
282,282,0.7487492341154411,6.440684317639494,1,1,12.245452048185525
283,283,1.401470125686478,7.9964753044504375,1,1,13.264091281615366
284,284,1.766171725482616,1.6244590807200676,1,1,15.088365592556352
285,285,2.0380270847801607,7.322928052676297,1,1,15.245983373534774
286,286,7.4645604467137066,2.6428760281056385,1,1,12.099518434266672
287,287,1.1206857742684684,2.2660184310945652,1,1,12.974993789329691
288,288,6.715703196963293,8.197370734655573,1,1,17.01827740761903
289,289,6.446284653104218,8.073215143000166,1,1,22.61877879078461
290,290,0.852311326080174,9.168243449605542,1,1,19.69542072535269
291,291,3.7766987971876356,3.8404161487826394,1,1,21.229356258379767
292,292,3.8244483864643666,0.0,1,N/A,9.66420666524759
293,293,4.905205499434641,0.3617135768414015,1,1,21.26632594806904
294,294,2.1449479132740046,3.249160220576334,1,1,23.309108772704988
295,295,9.488735950223894,1.2696077740804956,1,1,12.118635640103504
296,296,3.956373658844521,7.58727219898714,1,1,13.418903715494713
297,297,6.536595734430896,3.253339884531965,1,1,16.168308527637564
298,298,2.855970786941344,9.590303785677625,1,1,21.755524640927796
299,299,9.145656537958388,9.46002889070848,1,1,22.480691268195002
300,300,3.119286394246805,4.307417721299295,1,1,20.946592338270708
301,301,7.700264556643061,0.0,1,N/A,21.96193886745668
302,302,1.7519520404534372,6.717389061397644,1,1,13.304974796233871
303,303,0.7003162457724099,5.90693775886292,1,1,10.47051671463641
304,304,5.538270381395725,7.309560207480179,1,1,14.34146456636619
305,305,4.64514545593995,9.979674854893155,1,1,17.538274724899956
306,306,4.489583702654022,8.943530808970582,1,1,13.44253308917379
307,307,6.539350253676686,9.307782950172522,1,1,23.674329220291302
308,308,1.0148819658291164,2.608381398168028,1,1,20.70442972861654
309,309,1.6204073164717014,0.0,1,N/A,14.437400291070361
