,Job ID,Stage-1 Processing Time,Stage-2 Processing Time,Stage-1 Machines,Stage-2 Machines,Due Time
1,1,7.9469816636721236,4.213737648262613,1,1,15.50775090469007
2,2,1.4682711541084792,9.598467052188683,1,1,20.35668430492558
3,3,1.0465309403879808,1.592333813500656,1,1,8.324972229392536
4,4,2.99432385071544,4.411460972760713,1,1,18.392672789548225
5,5,1.4240137958931964,2.6987491459951096,1,1,15.305037575252511
6,6,3.374311889576237,0.0,1,N/A,22.094859256424353
7,7,3.174510600172824,0.0,1,N/A,23.261745198681364
8,8,9.482350879374629,1.9611413455768822,1,1,22.73735875043043
9,9,3.1009815269729355,1.4098487924190606,1,1,21.76851669752339
10,10,3.037855220475908,7.90264474731026,1,1,19.467842754495685
11,11,0.6258285651066819,0.9744109948399504,1,1,11.879485904920397
12,12,3.9545050029616533,0.0,1,N/A,16.66179410282456
13,13,8.038135041377824,1.0674794929049969,1,1,10.460228162154392
14,14,5.503347558361798,0.3436089786527874,1,1,7.542750671761517
15,15,7.553138574308313,6.684880222961885,1,1,23.101484653219146
16,16,7.397314259457149,0.9357377100653486,1,1,20.98492216746021
17,17,7.501357523972921,9.79605760820091,1,1,18.56133597389377
18,18,5.387824082302889,5.682858220767245,1,1,17.386072804615875
19,19,5.675383189424328,5.671401048045045,1,1,23.776013847073337
20,20,5.299003868497966,0.0,1,N/A,23.60372093669031
21,21,7.4675667275996584,7.991436463569331,1,1,18.569970989504274
22,22,8.44704983697191,1.38372983412822,1,1,15.623153744107995
23,23,0.284617596493264,1.9592373334856494,1,1,20.99107386116339
24,24,3.4151697295146644,0.17700583017718485,1,1,13.31769466727164
25,25,9.058232792417035,0.0,1,N/A,21.5314827059465
26,26,0.07990196691069373,0.0,1,N/A,13.75531850098623
27,27,6.985161669760606,0.0,1,N/A,17.658529070722594
28,28,7.372829703852313,0.5848183420416775,1,1,18.627515170334867
29,29,7.095018574820246,5.771383642587031,1,1,23.719933356300466
30,30,0.49363137275497904,5.8780737797345575,1,1,22.53387528174627
31,31,5.288656942841951,8.038183732043347,1,1,23.51282844934522
32,32,8.363424816887406,0.0,1,N/A,15.482413390712944
33,33,3.4930835287300113,1.94222538176965,1,1,8.717618336754118
34,34,6.792590567052264,6.168799809664939,1,1,21.684839161959776
35,35,1.9372183842323665,7.251422401154823,1,1,19.20526471521447
36,36,4.466344082581047,1.4829531143166763,1,1,16.71989167969656
37,37,3.0564546102754653,1.1960138575109913,1,1,17.648951592420303
38,38,9.838329732113518,9.470594730342087,1,1,20.048386494416356
39,39,7.522409395891037,2.153217160418064,1,1,23.05372057753383
40,40,9.348083199266798,4.5125444208276955,1,1,22.40789316868718
41,41,6.357986799349465,8.481521836466992,1,1,16.826854925493254
42,42,4.582622062731641,9.866643666396449,1,1,22.830998768720868
43,43,4.190241533074261,0.0,1,N/A,18.69126949150734
44,44,4.501625034831767,0.0,1,N/A,23.944026388351865
45,45,2.452263151675065,8.19570771107362,1,1,11.383855528017826
46,46,8.338012673108782,9.078764254061248,1,1,22.947442180583735
47,47,6.566446885664101,9.354308333571954,1,1,23.66929481168035
48,48,3.0360488438832633,0.0,1,N/A,11.070812478673954
49,49,2.207401107831556,8.575188008153935,1,1,15.189030257958837
50,50,3.895274162975695,0.8482782821379242,1,1,19.347066984570606
51,51,2.877907915670743,1.8138866924465336,1,1,8.510413732374083
52,52,7.020197253736949,1.0846670440621742,1,1,8.662624079679684
53,53,2.714693503213729,0.0,1,N/A,10.523450300423178
54,54,1.9410712705498234,5.3249269025745445,1,1,10.113227107664581
55,55,3.063252557221886,4.731050365279151,1,1,8.419379391352201
56,56,8.577135551888928,1.1961224184921648,1,1,16.151360383854914
57,57,2.548184640112081,0.8091124155845719,1,1,19.792261098287227
58,58,5.742352313505742,0.0,1,N/A,16.37350133937343
59,59,9.747375271219013,6.830490161661702,1,1,22.825355146593193
60,60,5.387917276102636,1.679460262674407,1,1,23.46295102323689
61,61,8.062566665557183,0.6346482539869902,1,1,22.137193410149557
62,62,4.468045530881928,7.268323660158707,1,1,19.603973197620206
63,63,2.1502975359496714,8.436510274655781,1,1,20.311360514405266
64,64,6.328673002506228,3.3150096199683543,1,1,13.773637793848192
65,65,4.128305403769477,3.462413564367054,1,1,11.294112563784857
66,66,1.6298714102242406,9.853507371958724,1,1,20.16222971175891
67,67,6.106136405809416,0.0,1,N/A,11.502445442805161
68,68,9.304867838422336,0.11255300192539064,1,1,16.855706912188545
69,69,2.649598577036887,5.199322286326522,1,1,10.593056500159914
70,70,0.3257802892766415,8.45382560978252,1,1,8.838265064219057
71,71,7.103538414673396,5.029561778623972,1,1,17.955001043181085
72,72,9.06835827643759,2.743334789649887,1,1,23.083728471340116
73,73,3.068624224598,2.099522834954819,1,1,17.66047455988096
74,74,5.06772655685158,2.9527435872440866,1,1,14.088359083270557
75,75,4.1856026805091195,4.751144601300608,1,1,20.895210429378267
76,76,5.961843047637817,3.5906004335942896,1,1,22.04985519810456
77,77,7.300689636127174,0.0,1,N/A,20.434307096892937
78,78,0.1940991270052561,8.828984548802184,1,1,18.03241475771955
79,79,7.5032695120546835,8.908164423832797,1,1,20.690248198702324
80,80,3.982647537471762,4.850215428958858,1,1,18.51228145066432
81,81,3.1567788895698023,6.426354101099756,1,1,10.350411306199359
82,82,8.260096466611392,0.1833508297193076,1,1,20.447283683125704
83,83,5.075693558615239,3.0060701657497524,1,1,17.203346214835264
84,84,6.95268787876111,5.366286183662879,1,1,16.330508742128973
85,85,3.1396149793100236,8.92284846253623,1,1,14.252836131945143
86,86,4.384907264742064,7.339493958789869,1,1,14.851328032984323
87,87,2.236886409208437,7.501247796096751,1,1,10.866783721495027
88,88,2.735403494406646,3.5937217234303964,1,1,14.006493654078835
89,89,8.616507977547045,8.246340563724802,1,1,23.774551542448943
90,90,6.899613022599458,0.0,1,N/A,22.834841064283165
91,91,4.7339023343777065,4.623532401740195,1,1,11.442140455606193
92,92,7.297834374973151,5.638778805961949,1,1,23.9473930679399
93,93,1.3286588409333844,0.0,1,N/A,21.044847598241393
94,94,4.583129033849359,1.3191427633494002,1,1,7.355024703734421
95,95,3.5545937764854085,0.0,1,N/A,11.982799826432714
96,96,5.8238975553584185,3.3435909096874927,1,1,9.547247021384456
97,97,8.68151783381202,9.52289767560593,1,1,19.11477451323515
98,98,5.3186378813201145,5.569986063946959,1,1,11.040188667817423
99,99,4.6414065033954275,7.746374484112488,1,1,22.89004727588498
100,100,7.312370864963109,0.0,1,N/A,11.997513780884468
101,101,3.6701830907939472,9.311378753569047,1,1,15.375229708880708
102,102,6.674205709840544,3.741959748560845,1,1,23.16517207471035
103,103,8.201354753310582,4.777344196991451,1,1,20.835157915397016
104,104,9.286753914813312,6.2652596568877925,1,1,17.931871695960687
105,105,1.3428047806348986,2.2756522934865933,1,1,10.638157225999223
106,106,3.116399407743884,0.16716045636403276,1,1,9.336941195257978
107,107,6.055524145743281,6.275079151437887,1,1,19.637801446037713
108,108,5.9510814752895715,0.0,1,N/A,15.051758543921213
109,109,3.2594482299786076,6.189638157795063,1,1,12.813659454980547
110,110,4.240106314745282,7.247561379251543,1,1,14.082962479148263
111,111,6.058044988140435,0.48060705764211176,1,1,17.558646168802532
112,112,7.034447811961413,5.587374176727612,1,1,19.396033504690514
113,113,4.594313488063029,4.445531932591107,1,1,16.108367719228173
114,114,6.436885318249667,9.133481980840081,1,1,20.227678453425753
115,115,2.4267022627950685,8.802514241757933,1,1,19.1684751843418
116,116,5.4323001161283315,0.0,1,N/A,15.913808592497457
117,117,9.880767237839121,0.0,1,N/A,15.128902254055946
118,118,6.051204870702457,0.0,1,N/A,18.355002957341753
119,119,6.405915888762762,9.643006750883568,1,1,16.861781008004883
120,120,2.7293248999379447,8.90738795574663,1,1,21.239147012986514
121,121,0.40417812444478285,0.0,1,N/A,13.412415421782422
122,122,9.61435579072683,8.998853350577022,1,1,19.928467928959872
123,123,9.839083877174119,7.385003351019799,1,1,20.2492590117581
124,124,7.1388995508345925,2.1609038639292955,1,1,16.495124365746044
125,125,3.1892896425190145,4.651287710253341,1,1,19.124688914653152
126,126,8.166686922342448,1.6370976800135584,1,1,13.885883730143043
127,127,8.688906343589561,7.587620170069334,1,1,17.41322775487636
128,128,4.447265905837573,5.403447273728026,1,1,23.83139014851245
129,129,3.4457817306963747,9.092813612343907,1,1,22.8649884938507
130,130,6.610341391671773,6.952992453946334,1,1,23.09356762376909
131,131,4.9880227701762845,2.4481523503062927,1,1,10.452261185222026
132,132,1.986099598423826,7.973562565651218,1,1,16.298479742669986
133,133,6.248944501129749,2.7256860118887714,1,1,21.567550524919984
134,134,2.921979147174545,9.2248393092869,1,1,14.57396937948243
135,135,5.0708941287825615,5.8575315840510225,1,1,14.502443676709799
136,136,6.890544475110146,5.74699481538244,1,1,22.93183645509199
137,137,6.9278976353072705,1.2631646348750913,1,1,20.473033294502233
138,138,0.9679524451618704,5.718542944116702,1,1,21.877121600036084
139,139,6.758494261703146,6.536564100567528,1,1,23.650707019496547
140,140,0.21913856683639765,6.602776536102878,1,1,7.169382401893568
141,141,3.857553107865569,7.683513895847078,1,1,22.968647341531245
142,142,5.710291322419289,4.722994694795874,1,1,19.661293244710148
143,143,4.560034613491602,1.2341310981937736,1,1,8.002006943500588
144,144,6.356055700684626,0.0,1,N/A,18.48851622880607
145,145,4.062952228004097,8.121989326028004,1,1,20.668883060450213
146,146,1.3935880147884472,0.0,1,N/A,12.431898447588804
147,147,9.862586284897807,7.2110979075132615,1,1,18.554751275184795
148,148,9.505020432998537,4.912940442365633,1,1,23.7830773574725
149,149,6.285280620250196,7.612057857346322,1,1,14.521295159952277
150,150,0.6811247321566716,0.0,1,N/A,14.68690579411094
151,151,6.0517381783641575,0.0,1,N/A,19.169358518283055
152,152,9.528365657544875,7.718186467764435,1,1,23.882449807333032
153,153,8.024239838718103,5.188464925449531,1,1,22.83025926409817
154,154,9.008694827100099,0.6015930065795982,1,1,9.753155046694259
155,155,2.826183528717292,1.85659652779395,1,1,20.10399806165144
156,156,4.867407013929949,4.210819276513785,1,1,19.30401370114432
157,157,5.961317955902425,8.300810042925006,1,1,22.136314052624677
158,158,6.873954465624198,0.0,1,N/A,21.21747074287343
159,159,3.3955103408420717,4.122098022970838,1,1,16.552538954867373
160,160,7.634279300175125,6.395190748549144,1,1,17.30618763098
161,161,2.8455517136463717,7.195625348125338,1,1,22.95599697580097
162,162,9.482217330022953,5.381391225308584,1,1,23.1609109559199
163,163,2.12594362242444,8.643604477552655,1,1,19.924697294254784
164,164,9.136621808827975,2.8775080632818426,1,1,21.331022679061295
165,165,0.04288146599603859,8.223182402587257,1,1,10.96953233075568
166,166,1.910441575987738,2.6869054305870477,1,1,19.52605291739723
167,167,6.3958807743991875,0.0,1,N/A,17.92216709318997
168,168,8.680680143972365,8.302856396909092,1,1,23.361487278469404
169,169,5.612748103987086,0.0,1,N/A,18.292017924940833
170,170,6.719916795657605,0.0,1,N/A,14.924191971555636
171,171,1.3775244520349839,0.0,1,N/A,21.312775306619038
172,172,4.499398901449913,4.417057271046177,1,1,16.428764397448536
173,173,8.680980260933469,0.0,1,N/A,21.379549218765693
174,174,9.539823229788503,7.906018878273942,1,1,23.664132638273568
175,175,4.239526949154912,5.313229926135017,1,1,12.841711054335924
176,176,8.606929310393792,0.0,1,N/A,20.05780134187006
177,177,2.1276417491548583,6.2433915616223725,1,1,15.315630971994098
178,178,1.043378089766277,3.238662476930635,1,1,19.884436125414467
179,179,1.4083586769398215,3.645362851790087,1,1,21.223130413306325
180,180,4.042077378155403,6.16627212705014,1,1,13.052379512052806
181,181,6.5655194859906905,4.813784194171241,1,1,16.22749749445085
182,182,6.268640631113315,2.162319251608258,1,1,9.59489431139285
183,183,4.422154619033445,4.05825432524514,1,1,13.412260298767585
184,184,3.304290714882787,7.645599225441874,1,1,18.050177066979742
185,185,1.307186078422642,4.569228039544657,1,1,12.722041301920815
186,186,3.3336639854515804,3.3995009876128846,1,1,15.640899635730348
187,187,8.936234423998226,1.496430733134847,1,1,14.667367330483106
188,188,5.362172300599371,8.642247988203156,1,1,19.658719996807633
189,189,9.419030622171947,0.41965976323614096,1,1,22.96636397705498
190,190,4.2016772996410925,7.690000415539605,1,1,12.180918441224122
191,191,8.47448921501214,0.5720330014132002,1,1,15.947572755825224
192,192,3.6103329340664425,5.969931435156205,1,1,22.40897310322236
193,193,3.2153215307593728,1.6191697188909537,1,1,14.770608851133135
194,194,4.917684367639823,8.270631822555977,1,1,16.30810053134022
195,195,9.934458505768383,0.0,1,N/A,21.818167005130096
196,196,7.4439067515549615,6.547090359200505,1,1,20.101467921856703
197,197,9.698478036687783,6.407208659876512,1,1,20.57810316865261
198,198,0.008633919844006632,8.87254167775247,1,1,23.22903676164247
199,199,9.167465203627943,8.978939274417485,1,1,18.73707260013184
200,200,9.510502396492578,0.0,1,N/A,13.734579739246435
201,201,0.647069451888661,0.0,1,N/A,16.02481975560557
202,202,4.464271132073573,3.3178920308327875,1,1,10.446484906468664
203,203,5.327081440018331,0.0,1,N/A,21.832410739710962
204,204,4.38124481375799,0.0,1,N/A,19.728529293752405
205,205,3.0618694619656073,5.11639301774998,1,1,15.518493447664477
206,206,6.687676005695188,6.13593843302635,1,1,18.05488490277724
207,207,7.312339068861943,0.0,1,N/A,20.795922721348703
208,208,1.907422794738447,6.873689974872494,1,1,16.681850600795954
209,209,8.46530866273324,4.663319222109186,1,1,14.249886407074474
210,210,3.8449101847931564,0.0,1,N/A,18.765797090082245
211,211,5.573675027511023,8.55272902456021,1,1,19.156587124591056
212,212,8.927276755237202,0.0,1,N/A,20.382989674874906
213,213,6.15389645678643,2.062519980743515,1,1,16.49649292054216
214,214,0.48648104767847866,3.461357166307466,1,1,23.50013957610082
215,215,1.0952244010972167,9.513244735784445,1,1,15.158932955430966
216,216,7.83724193235239,2.9590140817293142,1,1,14.64025472773972
217,217,5.720317245602536,3.6051945157956213,1,1,22.542311205155084
218,218,1.2677335833840886,6.2035672709972705,1,1,19.037699944129532
219,219,2.526130205128915,6.09757499757928,1,1,22.519185077495912
220,220,9.379273287288227,4.967180469062836,1,1,15.216295266107814
221,221,7.068030955722891,0.11188951389123458,1,1,22.084594562617944
222,222,3.8941189999921724,3.23758191011441,1,1,22.434265656416386
223,223,9.537043199711777,6.707235858984589,1,1,17.936167348059108
224,224,7.009590379961752,6.038568945362322,1,1,15.130845004228995
225,225,0.8705399877791553,8.467114826065117,1,1,10.910922436890678
226,226,3.8712795717317636,7.666301253564475,1,1,22.016394712885152
227,227,0.851036258449418,0.8564942329465797,1,1,5.711993784971562
228,228,5.964227705558547,9.377730852612684,1,1,19.339541712141926
229,229,5.500276199483021,6.445854031601224,1,1,17.79341850517178
230,230,3.409811119478464,6.553819584260605,1,1,23.10594656167751
231,231,3.1294655564073635,7.759317270250379,1,1,14.139213240194138
232,232,6.445957324793037,7.52110434433337,1,1,19.76878940352703
233,233,5.909205140594507,0.0,1,N/A,15.78901005283264
234,234,0.2879266161943306,8.403329228531621,1,1,22.161769204969687
235,235,0.5215683116330205,5.434115631633471,1,1,19.058558767201593
236,236,6.249961405123262,6.89348840342106,1,1,14.799779654312005
237,237,1.4593060932826418,0.0,1,N/A,10.090728917344784
238,238,8.733325243158156,5.036546552410819,1,1,20.484495409873823
239,239,3.1006402380958233,3.4480160959084527,1,1,15.00099875557418
240,240,6.24579039410138,8.475281656651774,1,1,15.1961011234965
241,241,6.605738992674468,6.710699874475776,1,1,21.154108042396437
242,242,7.014426697115423,0.0,1,N/A,20.600753210083408
243,243,9.731346693075594,3.856721244988177,1,1,15.239839210651747
244,244,3.5804462947743207,0.0,1,N/A,13.831716813894161
245,245,5.232282148485387,7.831719689528932,1,1,18.33124831198347
246,246,6.821021880386651,8.520159224347012,1,1,23.68070419904513
247,247,1.4408077509876782,0.07569366252952126,1,1,21.13829488133654
248,248,3.418689925470546,7.442095956265896,1,1,17.161974139259176
249,249,9.482677272787093,1.0423259335312063,1,1,18.360433542397537
250,250,8.31606761070491,1.8745216375897111,1,1,16.14128314855557
251,251,4.686667428200124,1.7112311117484635,1,1,19.16796645052892
252,252,2.6357562994387362,2.4011771477799804,1,1,11.698891354907998
253,253,3.961244534126945,0.47723706787235587,1,1,9.244147644382728
254,254,0.023700925700589348,8.397881032935203,1,1,11.857529606932342
255,255,8.316096554375656,3.2877139771329644,1,1,16.40418148875037
256,256,8.831261647324109,0.929192803935095,1,1,23.252916704846584
257,257,4.370051341176278,4.370470095880197,1,1,23.536977584415382
258,258,2.580297160795678,8.951934306245985,1,1,15.308696949456245
259,259,1.0928842261368588,6.950786133447239,1,1,14.498283967649378
260,260,6.780473548626946,8.372525112978071,1,1,15.753100249567526
261,261,9.087377998449783,8.706626557953816,1,1,22.45025299614754
262,262,3.4737135681233866,6.691890151733664,1,1,22.01089475398303
263,263,8.945979752461618,0.0,1,N/A,19.589381973975975
264,264,9.416995936448782,8.695252296284885,1,1,18.249935555967852
265,265,3.186297964026478,5.199373303820824,1,1,20.601125159536064
266,266,2.726188422550596,6.749629534254805,1,1,17.15947151892879
267,267,8.466450961792425,8.414116794372559,1,1,23.48042047568671
268,268,4.106863308145943,9.933731216513902,1,1,18.244031730689915
269,269,2.598001223916607,2.403702242922906,1,1,13.73877789903056
270,270,6.58273474882921,7.1775178661122165,1,1,14.539385301557502
271,271,6.380851114483958,0.0,1,N/A,11.365860837186741
272,272,9.196044086220752,1.325214067953564,1,1,14.275467040592819
273,273,3.6913586194249683,9.199272846604488,1,1,15.95832351667434
274,274,3.787965250457841,3.813960501191125,1,1,14.8066568608915
275,275,4.000483987270254,0.0022097598998083168,1,1,9.379008997063483
276,276,5.098756530319401,6.147989937553905,1,1,20.567735559148623
277,277,1.4747882180425376,0.0,1,N/A,14.001407337029644
278,278,7.424508459863085,2.700928924731106,1,1,20.067333474616866
279,279,4.466462886699075,6.7981194990409675,1,1,11.750826221972197
280,280,3.333094514139252,2.2565606954818183,1,1,18.59832560371577
281,281,7.63215738846416,8.53479785177707,1,1,17.735347351595443
282,282,9.607917623042729,7.71680317307895,1,1,20.533215795534005
283,283,2.6488204621272784,0.0,1,N/A,15.238576328007646
284,284,7.7798427187814365,5.147774712434216,1,1,21.55819769937483
285,285,0.15306925223247947,8.587160579074746,1,1,18.08066067220682
286,286,0.6982275162305418,0.0,1,N/A,21.932516332951327
287,287,6.995970552969338,0.6186592578185712,1,1,23.658930371539995
288,288,9.381985964216955,7.09607411706042,1,1,19.670488507330077
289,289,9.3076301859522,8.608477194442482,1,1,20.64198918476174
290,290,0.6309682033991615,3.78011020207604,1,1,10.200278993987723
291,291,6.652616650217541,4.597486986178155,1,1,15.41952426190129
292,292,4.442855068842783,0.7954544660128982,1,1,6.567659409151821
293,293,1.5503794575768914,5.692064799002638,1,1,8.13420122331406
294,294,9.838006813772763,0.0,1,N/A,19.449851452965223
295,295,7.6163920105012135,9.866519924496703,1,1,22.06459914708989
296,296,6.705982696651567,6.339905795292269,1,1,18.59950318622183
297,297,0.04207305356484947,4.8735115297172165,1,1,10.114060846906558
298,298,4.996385310636456,2.8924411522681446,1,1,18.9955552449316
299,299,4.346626887769768,5.53662077704171,1,1,17.800866327867716
300,300,2.4780693847608584,0.0,1,N/A,20.6931946614369
301,301,4.181096819690136,5.824127730395398,1,1,12.49426274558728
302,302,5.4275132028274715,5.321161781485709,1,1,13.618939579342314
303,303,1.6796436744062881,3.4499332525498394,1,1,15.683143969276728
304,304,6.624303519351225,7.076360052659497,1,1,23.131821370274114
305,305,3.0649505097239937,0.0,1,N/A,20.367479459682663
306,306,6.925979990277873,3.065806317929546,1,1,20.50581554741558
307,307,3.86387148048722,6.460802741546418,1,1,11.941424795058662
308,308,0.6097893666918186,0.9022051573621725,1,1,6.936221199788441
309,309,7.302645603424556,5.9840216437286475,1,1,15.357948739063588
