,Job ID,Stage-1 Processing Time,Stage-2 Processing Time,Stage-1 Machines,Stage-2 Machines,Due Time
1,1,5.382880677832167,6.783808595918685,1,1,18.56153753420704
2,2,5.795380194041008,9.370019484794447,1,1,17.044928450365035
3,3,9.060214919441282,2.1679941154367155,1,1,11.882244304444075
4,4,2.609858865718757,5.669365795797937,1,1,22.46050943587136
5,5,1.0485982629032087,0.0,1,N/A,19.93546779034304
6,6,8.624499794998284,4.153352750796443,1,1,15.883107510983617
7,7,9.734678874685452,9.37784340719444,1,1,20.168620990873475
8,8,1.0546609651183558,6.799309976266363,1,1,21.517096690467017
9,9,7.993587083705558,0.4298013428175862,1,1,15.856714761712528
10,10,9.4812163527264,0.0,1,N/A,12.515075350960938
11,11,2.8906740206039085,0.0,1,N/A,10.8654384220347
12,12,8.163879915824708,2.6564293939290606,1,1,20.417550974363387
13,13,7.009837638407231,0.0,1,N/A,20.129530017511392
14,14,1.4448621213523705,1.8737919870869846,1,1,17.15337793295274
15,15,8.235385115454479,2.0876589009790036,1,1,22.80145776141311
16,16,7.893750590488418,9.898605443599887,1,1,19.495000606036566
17,17,5.799877324693635,2.0144469382475694,1,1,17.81737699766713
18,18,2.402941348602573,0.0,1,N/A,23.287468216209923
19,19,5.565463782638743,5.331463807085852,1,1,21.564621321585257
20,20,2.9769916428401597,6.861728682314428,1,1,12.807590688975516
21,21,8.774988270538627,5.22716451682133,1,1,19.818730305417425
22,22,9.060843850991256,3.914160540322137,1,1,21.994826554522675
23,23,7.874165570421114,5.819834953861203,1,1,17.52960884579859
24,24,2.526036244317172,0.0,1,N/A,17.583011441958583
25,25,8.84044445053431,3.8733676656296523,1,1,16.805247600186174
26,26,0.45253939453697045,3.356698657590221,1,1,15.300651158052823
27,27,8.979743324170142,0.0,1,N/A,22.76816565555136
28,28,1.7027159738052644,0.0,1,N/A,9.890705456778658
29,29,1.9767968710250117,4.711256475634401,1,1,21.635883457540636
30,30,7.757509480870483,0.23091721389464248,1,1,23.22872138064646
31,31,6.172076622119866,3.702701467455014,1,1,21.68522903076027
32,32,9.666705716725199,5.336778006603758,1,1,21.102495244447052
33,33,2.5848146854424217,8.007053507032607,1,1,20.722680355516943
34,34,9.814987132693807,9.32081561909514,1,1,19.472812503313207
35,35,7.33735118668651,4.7759760905853765,1,1,23.68167494475577
36,36,3.3289870053365664,1.6992498634051856,1,1,11.91554991685054
37,37,8.51250541241768,9.362892247355969,1,1,23.3923474753045
38,38,4.7626437385215405,0.8200222877591834,1,1,10.0941463387933
39,39,3.5199530176828695,3.761442463212352,1,1,22.283730531732996
40,40,3.4311062852604044,4.144312110960886,1,1,8.972995738572056
41,41,8.933873477147804,1.29090288159864,1,1,15.243352193463231
42,42,9.043384114816451,0.563860122877603,1,1,14.483198130868342
43,43,6.053176424051793,0.0,1,N/A,17.600036568907754
44,44,0.9759046536602622,0.7467317710725463,1,1,15.760173278519211
45,45,3.5472284099736906,6.126566308605649,1,1,21.571796937969495
46,46,5.621397454418221,1.567612038741294,1,1,18.650562000460503
47,47,1.512842712208452,7.560308437756121,1,1,12.326475917546764
48,48,0.38289926355112525,0.0,1,N/A,13.723450161452483
49,49,0.9586444633395863,9.775491123548319,1,1,12.639761966883956
50,50,6.254198780556641,8.092957857013129,1,1,19.831466100552298
51,51,3.61508074171128,3.9168335739871543,1,1,8.432289102565548
52,52,8.894968210386665,0.7264610965323137,1,1,10.664071977632162
53,53,0.9105249572545682,7.844655442804585,1,1,21.165077462268755
54,54,9.911129979473401,4.824483293880175,1,1,16.142674050699142
55,55,5.412688727317114,3.746612659126116,1,1,13.721648207569178
56,56,4.52503843859631,0.21094919831650905,1,1,14.495981997637028
57,57,0.6888441362983855,3.1768281552726787,1,1,15.676583282789451
58,58,2.822350175327956,0.0,1,N/A,11.412824536725473
59,59,1.7107159198763522,2.560171723362842,1,1,9.785435071703782
60,60,5.3215188361916175,0.0,1,N/A,14.726173873678515
61,61,7.389818725154038,7.341701835690624,1,1,23.93237791086567
62,62,1.2147626072861617,9.105204818376448,1,1,23.380079396332924
63,63,8.457739188177715,2.1799959498760977,1,1,21.301818692563103
64,64,9.351672215444687,2.9749657643315954,1,1,20.563692253074866
65,65,3.042558070808199,7.527732703521909,1,1,15.756857141454018
66,66,5.211766648304068,8.869855388929151,1,1,22.28721281220522
67,67,9.566954575909145,0.6131510780152005,1,1,16.881897018035193
68,68,3.779068062736044,0.0,1,N/A,21.430530781216767
69,69,8.078309890294982,6.685110239694078,1,1,21.06946010182392
70,70,7.649907601890812,0.0,1,N/A,12.864779904167701
71,71,5.972981710309667,5.0352701318727515,1,1,18.28891063914729
72,72,6.034007355529717,6.687631004230954,1,1,15.883392341456695
73,73,1.4176663507651621,0.0,1,N/A,16.02131225757785
74,74,0.3166897619870368,5.828544568831005,1,1,21.39337524119189
75,75,4.753308010999897,7.623384979236098,1,1,15.95363919352328
76,76,2.6731053287617157,4.432854998501181,1,1,15.869590852479785
77,77,3.0089613438296525,5.429339567132029,1,1,20.690653943841134
78,78,3.3550703657837944,3.2703555315876276,1,1,18.360361077392607
79,79,3.868977022922122,6.412110476724417,1,1,13.938745623496008
80,80,4.758975576773558,0.09949450266068194,1,1,22.79295001682634
81,81,3.8060006236311272,1.0699873433344342,1,1,21.11793004610002
82,82,0.857474633443982,5.357386910305718,1,1,18.952640765541638
83,83,6.08058647060208,8.948055568769503,1,1,15.431379969497982
84,84,2.640843627088416,8.394456662663895,1,1,12.399891667766008
85,85,2.8799043984072537,8.935667111326792,1,1,15.692565082980957
86,86,3.917956147309347,0.0,1,N/A,23.50281674212109
87,87,0.4709225968025632,7.171744856655299,1,1,13.0424003891819
88,88,2.781713690299928,6.37721656384964,1,1,20.85946709623999
89,89,6.4707901021014305,1.2996962586444782,1,1,14.137381606543634
90,90,9.326168123584985,6.035568537818926,1,1,17.746051467451355
91,91,4.935475750106103,4.805342551529574,1,1,21.720296303211406
92,92,5.292024068868187,9.856165290070098,1,1,21.73665500874882
93,93,3.1569108041918437,7.632594158321955,1,1,16.856366988524826
94,94,5.575027929178754,2.62424049759455,1,1,22.481496243041747
95,95,9.500979366486568,0.0,1,N/A,23.503803710341508
96,96,8.69149354291308,5.390782600002345,1,1,16.62210808102324
97,97,7.947249480921451,8.777653451084358,1,1,18.854277737057256
98,98,6.083301758704033,0.13749157342027196,1,1,11.834381487073689
99,99,4.6419798194852575,5.654597705302643,1,1,10.562834269527814
100,100,8.004805620974828,5.56748040122403,1,1,21.186995841911433
101,101,9.115849924875283,3.400697342567458,1,1,23.82894684569068
102,102,6.971502554106044,4.326276249104298,1,1,11.532015880755521
103,103,2.4996162542445797,7.5501743460879105,1,1,12.533550890031709
104,104,6.7181089807005225,0.0,1,N/A,16.34740951447082
105,105,8.08245176550863,0.0,1,N/A,16.45910691868726
106,106,1.4577616844119379,9.267782375870858,1,1,15.0020007081481
107,107,6.0566278952512445,9.106721206324222,1,1,17.07135836840203
108,108,0.7641278784875849,5.141800787812364,1,1,21.548726097177976
109,109,7.411733332446292,8.888126649072342,1,1,23.58415789356333
110,110,8.013320939861744,6.436370582069229,1,1,18.018999786117828
111,111,0.8612597963853352,0.0,1,N/A,13.555505779502937
112,112,6.54525153841367,4.917265331882224,1,1,21.687272836413754
113,113,8.190256503057187,7.6440490758973745,1,1,20.39118375428687
114,114,1.247126027055615,4.160490629328044,1,1,15.445634939569109
115,115,9.309047845978702,6.751217473972931,1,1,20.735886839298672
116,116,0.3377318886377201,1.4713781735035103,1,1,3.385951860908214
117,117,3.9157848588088964,7.393000586286908,1,1,18.261613234489154
118,118,9.587851020638018,2.430212851827881,1,1,12.5052328203408
119,119,8.343579488976955,0.0,1,N/A,18.374345951451467
120,120,2.386601265387811,4.9291529340813565,1,1,20.881172398672625
121,121,4.6947838837368465,0.0,1,N/A,22.442233998458583
122,122,0.5035591846253684,6.424405433225974,1,1,11.311874065455875
123,123,5.802949663745957,0.0,1,N/A,15.790189088787326
124,124,9.207490751411633,6.195241680380295,1,1,16.00975986853465
125,125,5.774644025676359,0.0,1,N/A,14.352915690042247
126,126,3.356310664070976,0.0,1,N/A,19.434934664163656
127,127,1.4073003101594361,0.0,1,N/A,14.899287884263147
128,128,8.344484469406936,0.0,1,N/A,17.154553373543077
129,129,2.79287261439769,0.0,1,N/A,19.30804846481793
130,130,8.315716668843939,7.254464379797309,1,1,20.75044313661731
131,131,7.307381585222302,5.719979142791736,1,1,13.82743024011594
132,132,3.3458188097512496,0.6708722274313195,1,1,8.6538274948975
133,133,2.238686552929443,8.93737864671859,1,1,16.183725559220804
134,134,7.7523689671864275,5.396034481815559,1,1,21.258163952355446
135,135,8.633452470131637,6.067454039595455,1,1,22.23401317345194
136,136,9.358414941256058,8.195924177378082,1,1,18.259782917271405
137,137,8.4538820147744,1.847039634761375,1,1,18.282833648478825
138,138,5.564566706279149,8.400167656859669,1,1,19.059272761484266
139,139,6.511713084374005,9.125927302759848,1,1,16.076140212282656
140,140,2.4039278154799804,5.778854071785295,1,1,12.38579345543269
141,141,6.224840401490636,8.270791102660054,1,1,22.261301163000027
142,142,3.507186343886705,0.0,1,N/A,12.458575257842128
143,143,9.608201773224122,8.645428201848205,1,1,22.02515068539735
144,144,5.398832200516804,0.0,1,N/A,16.535346939509363
145,145,6.034031989790078,9.969140970661577,1,1,18.981329404232497
146,146,6.413881741298325,2.9733515710721727,1,1,23.014319016713205
147,147,7.4923273447803815,7.4076564956138835,1,1,19.183956135435537
148,148,0.18063005678006783,3.836300682103232,1,1,19.87696138449675
149,149,9.068536370167768,7.104887021447057,1,1,21.606015196721952
150,150,9.979147426005044,0.0,1,N/A,19.62672984341347
151,151,2.938985585664462,7.144652560652532,1,1,15.01430999888164
152,152,9.97916027546944,6.441343551021611,1,1,16.87497087829167
153,153,9.100196469427097,0.0,1,N/A,20.939151799161277
154,154,8.826078162231104,3.2071422034663533,1,1,12.118609276607462
155,155,3.15079766194191,0.0,1,N/A,15.873957953762295
156,156,8.379535289528304,0.0,1,N/A,22.603796051833456
157,157,1.092972591267778,4.651437360288732,1,1,9.746836200876238
158,158,8.000242975409895,5.932073258486044,1,1,20.101833327565867
159,159,7.694840956314216,0.7375322154759267,1,1,16.146873209763218
160,160,9.678791847832693,2.245387384825909,1,1,19.462969103724493
161,161,5.414061094261151,6.437318584728534,1,1,16.765436016994318
162,162,7.0498537092220515,2.6884586011055536,1,1,13.338052394358403
163,163,3.2890031545860055,8.994138005781304,1,1,14.102312684126307
164,164,4.104611781042235,0.0,1,N/A,22.95668594302347
165,165,8.657491076596768,7.7992236115673395,1,1,16.702061243220747
166,166,2.1825316946160522,3.4438392229142223,1,1,12.21945717498599
167,167,8.726268111532816,6.477862330222045,1,1,22.172564262970294
168,168,3.5011279209194823,4.277726353384201,1,1,14.203030519493238
169,169,4.653754173853777,2.310083360389851,1,1,21.91031895351806
170,170,2.624924992531148,0.0,1,N/A,8.62418652070868
171,171,5.844473149700225,2.027878806151191,1,1,16.215538249450383
172,172,4.1555634449818815,4.303035990420713,1,1,8.61356542233105
173,173,2.6553425516297837,8.174551048110688,1,1,11.3815946654174
174,174,6.8014303883580745,4.2319056578874745,1,1,20.58777159795526
175,175,5.004794886127501,0.0,1,N/A,17.460847816507254
176,176,0.4889673775464498,4.530442964730446,1,1,21.923531737569284
177,177,8.007204111485336,2.421620191607936,1,1,18.37570978264072
178,178,4.153270979729599,1.575085072125476,1,1,6.012283844534445
179,179,9.723363295764951,3.6887191107551063,1,1,17.062342221502757
180,180,4.313127142666242,3.681043589353475,1,1,15.120602841415788
181,181,1.2865728003355148,5.997593317244521,1,1,14.625638267265446
182,182,3.0745199900094713,6.794517106916464,1,1,13.900570234826112
183,183,5.6784533261149175,2.1163706064747787,1,1,22.467199311793006
184,184,9.019817148321646,1.9260663031900516,1,1,15.026490322875802
185,185,3.739480753064477,5.5982410037217,1,1,23.469677878595327
186,186,6.265724717984686,8.812827901194737,1,1,16.92560459836058
187,187,9.74333127235845,3.584002373352683,1,1,17.6427109583529
188,188,9.320530441039105,0.0,1,N/A,18.553851363896356
189,189,1.0961303283491797,0.3641454609857553,1,1,13.057116222915507
190,190,5.792371136029466,0.26641938953743893,1,1,12.716036042322367
191,191,0.844178076865526,7.177419330492291,1,1,13.271572455631873
192,192,1.9901825886464297,2.7941391475116175,1,1,20.507238015940665
193,193,1.5222704037064616,7.480752507881418,1,1,13.713174321189555
194,194,7.672069178775588,0.0,1,N/A,22.104852179966073
195,195,8.966209079410447,4.5606912793667505,1,1,19.891193591441997
196,196,4.888035871369809,6.489457182181467,1,1,19.185784664876415
197,197,4.723182161612805,6.188513110053343,1,1,22.675178285550203
198,198,5.093124492264982,6.5608773557558635,1,1,13.834329504254695
199,199,4.608094733644908,4.81691089205901,1,1,21.708337701718705
200,200,3.7506908482872205,9.644008061181738,1,1,19.25338084129215
201,201,8.159141464607153,0.0,1,N/A,21.83076271027693
202,202,7.504601908883528,3.8489059576698157,1,1,11.387041837295593
203,203,9.997500495539308,1.5789020381398078,1,1,12.790351064437395
204,204,0.8140320153446723,6.8254032179821245,1,1,17.732834828858678
205,205,5.394751371019234,2.3739356459073866,1,1,11.714120475843295
206,206,8.535167489584826,0.2107996341148688,1,1,22.149950654806318
207,207,1.7047992316237603,7.098735424278779,1,1,16.443159056122077
208,208,5.904786119768822,0.4715925046214753,1,1,8.835998729267526
209,209,8.773875861156728,3.1856221290431366,1,1,20.812651926133533
210,210,2.3084865888743744,0.931140347146574,1,1,23.21803841021125
211,211,8.376096557911698,1.7168457020005123,1,1,23.464771325514196
212,212,0.2743602575826598,3.2447906839852902,1,1,9.561311935481562
213,213,3.9296018504243246,0.517746895846859,1,1,22.797000333851457
214,214,2.7138394760607323,2.4858693900375317,1,1,11.912591130410483
215,215,4.18584095558999,8.884070915395618,1,1,18.72402868504149
216,216,6.660199966870754,4.762610529453779,1,1,14.902107447516533
217,217,8.620150782744158,9.774625638659028,1,1,22.709918485335884
218,218,8.692406012867668,4.55237069763688,1,1,20.87053651551815
219,219,1.1374874963448867,0.7368444431471044,1,1,16.20404473166425
220,220,0.4336699070040406,8.754827853275707,1,1,18.371800576016504
221,221,6.203157265405606,5.849266499010844,1,1,17.20138989991394
222,222,8.091552130851907,7.466029795401944,1,1,21.03696038560691
223,223,7.155542545977362,5.220029058090879,1,1,15.392071511182163
224,224,0.6268369737138391,7.062564702681491,1,1,9.902906421725055
225,225,6.9024386118485195,2.2431445392078295,1,1,13.43892533161716
226,226,0.6083687004808003,1.16049332655483,1,1,23.923942257062617
227,227,9.35479781966037,0.0,1,N/A,19.672621845890436
228,228,3.4700140896909937,0.0,1,N/A,21.24314164368463
229,229,3.7173725371629973,9.437527812047234,1,1,14.744812726735871
230,230,4.725666577258352,6.0884208713921275,1,1,22.043687680169214
231,231,1.964314021267607,0.0,1,N/A,14.534293330509755
232,232,3.1203374514131097,5.139401900381923,1,1,8.920849277167816
233,233,7.689055485897893,6.8841064554821365,1,1,18.475286077624897
234,234,2.9683788923477463,7.7729260018475985,1,1,17.658647178789344
235,235,7.003408522135469,8.93336067929398,1,1,18.529342695566736
236,236,4.575355063988292,2.623530118591959,1,1,13.333054892257572
237,237,8.565720018043262,9.882918236685112,1,1,20.3836504683006
238,238,2.898775942379671,5.031522684292815,1,1,16.26111777987883
239,239,7.552670747484668,9.83785916955529,1,1,22.988628627433247
240,240,1.2672035187898278,0.0,1,N/A,20.828652122708895
241,241,8.79221887690526,0.0,1,N/A,21.52328986239214
242,242,0.911467314516653,9.2528743772859,1,1,14.810042602953793
243,243,6.837488955199467,2.0406880556778617,1,1,15.653862944300677
244,244,1.777054815970155,4.704871812068735,1,1,22.84817573188164
245,245,4.470064853572948,0.0,1,N/A,15.196602786331916
246,246,4.862779973219396,0.0,1,N/A,22.408256410117946
247,247,2.7635945644838964,3.5699100849165957,1,1,15.921824079105697
248,248,0.05430972024997427,0.9212275388828806,1,1,9.9203963531553
249,249,7.993477036068882,0.0,1,N/A,22.672579043454203
250,250,6.886391727631236,5.677346718687529,1,1,15.5326028288383
251,251,8.81336593630698,3.983255855753347,1,1,23.26741422661847
252,252,9.904064097193972,4.917943636192284,1,1,20.797229869031792
253,253,7.557884693973605,0.0,1,N/A,23.34832270604152
254,254,5.290921766026861,0.4012464975274044,1,1,7.628843452883069
255,255,2.397038048673327,2.5096963670628836,1,1,23.500928687610156
256,256,1.2242937790197106,7.458518521155354,1,1,11.822231650075826
257,257,8.324593500943704,3.3723123813545106,1,1,16.822477918434537
258,258,2.089809721034869,6.983243682993571,1,1,12.579927315838981
259,259,0.5682625549863629,9.446134925070368,1,1,17.639440086179935
260,260,5.554079526345569,0.7565374043719042,1,1,13.934449373197463
261,261,1.7184266441695895,3.814885084105036,1,1,6.855965120313996
262,262,5.253663258874532,2.058636470369195,1,1,19.86286760860757
263,263,7.126598118954251,0.0,1,N/A,22.67693646727097
264,264,5.046522350462924,0.0,1,N/A,16.184612265916197
265,265,2.580597276825519,3.672050955317637,1,1,12.939393304890363
266,266,3.4254332264643184,3.869978957303686,1,1,17.015609790117132
267,267,6.935730224952096,0.20928194322149096,1,1,12.10397473519703
268,268,3.166872266729399,4.704583537970991,1,1,21.724496935582327
269,269,3.8319128588278573,6.69870320652044,1,1,18.062498493695095
270,270,8.017614230086796,2.4322130775596786,1,1,21.406541232806234
271,271,4.4451569989947455,3.6667679132574618,1,1,11.51466338022461
272,272,5.695444948666016,0.0,1,N/A,16.598397577240135
273,273,0.9907845517564684,2.9322946325732913,1,1,15.07134355470816
274,274,8.919549594814256,9.079831716905304,1,1,20.207669493585602
275,275,2.121811935780827,8.673306809295498,1,1,12.941020686746558
276,276,3.0596878222319255,4.8292953200161755,1,1,12.023214032948555
277,277,1.8840993005375883,0.0,1,N/A,8.401428214087511
278,278,3.5849409748574477,0.0,1,N/A,13.214652177137976
279,279,9.113241831515804,1.5298779596991041,1,1,15.168011841666726
280,280,5.670636828122334,0.0,1,N/A,18.51342066778744
281,281,9.981870371133631,7.24281797236448,1,1,23.03265904407944
282,282,5.639918945941954,6.570732039183538,1,1,17.889496917502175
283,283,3.2686757907132757,8.172409276654237,1,1,17.443803462761174
284,284,4.252579574956112,3.329804788147288,1,1,7.912310061782465
285,285,8.89894383523193,4.098938424957998,1,1,14.046278079384003
286,286,3.7960836527998,9.23257224658418,1,1,19.57736701193847
287,287,3.4195151416099225,1.0176749052823664,1,1,11.649681689368515
288,288,2.236761154192386,2.7068336133875457,1,1,12.268652712043501
289,289,9.295643586874027,1.310820387236702,1,1,15.908378084892435
290,290,2.671141859461997,0.0,1,N/A,17.337327705650182
291,291,7.395133733303672,7.467620374485662,1,1,21.28616146470996
292,292,0.2863774658444962,7.002543703697354,1,1,18.021469341855415
293,293,2.9672233591321575,5.5559726961995,1,1,11.398372873965682
294,294,7.2037624611419435,2.299876041349039,1,1,18.046586767109098
295,295,1.2556957267105318,8.208929583234598,1,1,22.606702795020546
296,296,7.549320653061118,7.752951450590731,1,1,20.18530887247561
297,297,0.9913786599848062,7.581139246747135,1,1,13.968032222859424
298,298,2.8225932755724314,2.4175456353064906,1,1,14.32659085216825
299,299,2.4711133491095296,1.4786228838228466,1,1,14.209016192984663
300,300,2.1481839661455906,9.238714778609559,1,1,18.71573601555469
301,301,8.972430410818976,0.0,1,N/A,20.881142910026227
302,302,6.298863931550742,0.0,1,N/A,20.91064936805464
303,303,7.403297383330627,0.0,1,N/A,23.45612382583694
304,304,0.25131735126365906,0.0,1,N/A,17.1437697197532
305,305,4.856666852368988,1.443754752234272,1,1,12.380568981939923
306,306,8.991465381946643,0.0,1,N/A,20.260753601145083
307,307,7.292504512505507,0.0,1,N/A,16.328763672584863
308,308,8.03783496513015,4.545611677870997,1,1,19.903703596817856
309,309,3.9850125702333528,9.125262740329326,1,1,15.56650323650359
310,310,6.398996486491944,5.96489010168717,1,1,17.190306543843082
311,311,9.070066937793815,9.000724546266586,1,1,23.348636156267677
