,Job ID,Stage-1 Processing Time,Stage-2 Processing Time,Stage-1 Machines,Stage-2 Machines,Due Time
1,1,9.02363867805216,6.692960804152505,1,1,22.006994345752137
2,2,2.307878824817738,2.12141745934486,1,1,17.448953614272074
3,3,8.735226312200071,9.358783152155548,1,1,18.623828556717385
4,4,3.05902791865988,8.975844463963243,1,1,12.314175655255575
5,5,7.387374342749288,4.076316675800989,1,1,18.16991936994209
6,6,1.3565813814485905,2.9472767357339302,1,1,5.124275630621312
7,7,7.7442652488044095,1.9346223067514956,1,1,18.886945984956768
8,8,2.4215566490721696,4.900188703161477,1,1,23.129106908943925
9,9,9.044572705120741,1.045057789082544,1,1,17.66930538334462
10,10,5.391402892706449,7.661117442535733,1,1,14.388950823779682
11,11,0.8349977842474154,4.122075690576423,1,1,13.884873017712339
12,12,4.482299612433506,0.0,1,N/A,17.70350903800451
13,13,3.745584924894093,9.858886945948672,1,1,15.398259418594794
14,14,2.864223267504704,6.791579294174545,1,1,16.234439937337275
15,15,6.644866626475011,3.6376743325470704,1,1,23.28805443016713
16,16,4.839010413730436,6.257095786731837,1,1,21.638039009196056
17,17,0.16893570145711467,4.360893235959696,1,1,5.000652725139444
18,18,4.245776668953222,6.143299160517067,1,1,14.525594784935265
19,19,3.7866786439495703,0.0,1,N/A,9.941429043871775
20,20,3.1233660171792774,9.439157650065313,1,1,14.361129581235272
21,21,5.965498711421905,3.4708674538312643,1,1,18.684666625850717
22,22,5.748175910884882,6.985960624353174,1,1,16.34374134784977
23,23,6.608585769768638,0.0,1,N/A,21.40849012647022
24,24,8.776160961466829,0.2921936895872024,1,1,16.904754961174238
25,25,3.149611094604128,0.0,1,N/A,21.66790273564128
26,26,4.785061134386771,6.906802522817458,1,1,21.503968555065693
27,27,6.425441847247337,5.671847123416698,1,1,16.67236832674937
28,28,5.63150495418265,0.0,1,N/A,14.597567973571696
29,29,7.0982282856005465,9.198980796969186,1,1,17.662619304470397
30,30,4.96167561935735,0.0,1,N/A,14.283322673665447
31,31,8.431881988937258,2.376865736430652,1,1,16.92046161875064
32,32,8.95741781912665,2.278449330324607,1,1,22.77551653176245
33,33,5.234586240282769,6.696917646803105,1,1,18.371369565708346
34,34,2.198448956243272,3.581765360621133,1,1,7.335602962575031
35,35,3.8533244155680424,9.151796626017637,1,1,13.742253814608567
36,36,7.381011655649657,0.0,1,N/A,15.171748758721032
37,37,3.1495441387798917,7.7063820950013575,1,1,16.38298518854608
38,38,7.674572268730349,0.0,1,N/A,18.02934964586758
39,39,1.6182302457603726,2.6870118726843684,1,1,16.926879940552674
40,40,4.38063195669163,1.4190884799302883,1,1,10.125751624563748
41,41,0.15242462280520508,1.07354624597216,1,1,22.869047201357567
42,42,0.35835299482546157,9.780665869162764,1,1,18.75879453916527
43,43,7.237899243543823,0.3645100583683536,1,1,10.35408978758563
44,44,5.442068985581797,9.196210184853186,1,1,20.352019706193204
45,45,8.951444243325893,1.4266608665768177,1,1,20.535933306664166
46,46,9.330973442577049,7.27264029331376,1,1,23.748625511679816
47,47,5.963021222730096,1.3956439281450717,1,1,18.497653041270116
48,48,2.5816182561447842,0.0,1,N/A,21.475701302765003
49,49,0.8466029818360199,1.5089229745142507,1,1,10.877123281231261
50,50,5.0173367078875515,1.4210583589432313,1,1,16.628202583450385
51,51,1.5368376943981155,0.15275370505691166,1,1,13.12780171296683
52,52,1.2825886372078588,1.4341504268808603,1,1,13.982320800019531
53,53,3.090395198053474,5.208600798844002,1,1,9.759319149903924
54,54,3.1807912599671297,4.969886586905625,1,1,23.23494794724327
55,55,1.6887378070676962,7.602863908909931,1,1,19.368441543986293
56,56,6.312822345626601,0.0,1,N/A,23.181894302874234
57,57,2.80845418575302,9.233358659352128,1,1,15.627439400228992
58,58,9.98358597240358,4.569735157894793,1,1,21.370384024650715
59,59,3.7723971016334845,3.0066174063541706,1,1,11.979139882560927
60,60,6.285937393952508,4.2789803424390636,1,1,22.80102429882639
61,61,7.6134218744377025,8.201932064668158,1,1,22.187888256657164
62,62,7.520901689729536,0.0,1,N/A,21.69541305730069
63,63,0.8742801875804962,1.1070035600465267,1,1,20.805039690592082
64,64,7.616560800377945,1.7584020949568802,1,1,19.953999177496975
65,65,7.220268345942964,6.7975114837949775,1,1,22.861585456906134
66,66,2.3702121075966796,7.021673310912356,1,1,22.759003928149557
67,67,5.3252817776008285,8.22471017992746,1,1,14.542392566291293
68,68,7.918134548227061,3.8143656273268336,1,1,21.983011784462406
69,69,0.7800144676258103,1.3218277200461148,1,1,19.49412847955109
70,70,1.6026406584831687,1.932625436316282,1,1,16.842536008201154
71,71,5.419351700860365,7.679574282762514,1,1,18.037490290375953
72,72,3.8734071525827973,8.647319658609241,1,1,16.95701466381693
73,73,8.44190190059652,0.8885512162537834,1,1,19.220403530759857
74,74,7.743186139840553,0.0,1,N/A,13.41204913074614
75,75,2.3282941227177476,9.76682176629184,1,1,14.476587208516996
76,76,5.73089629685594,0.0,1,N/A,19.930854973851638
77,77,8.694689654074569,9.739016261678918,1,1,20.11700731055637
78,78,8.727765572372219,6.66225253676061,1,1,15.786492849660275
79,79,6.75325571902412,6.34169970183263,1,1,16.86325400180625
80,80,7.72217375198862,5.8742875573035835,1,1,23.591252009139097
81,81,5.881038836827578,9.633576389913255,1,1,16.50954508483069
82,82,8.89825222740315,0.0,1,N/A,17.083312326507766
83,83,5.797084642163717,6.228524279675559,1,1,20.824268129585583
84,84,6.974698036124756,0.0,1,N/A,16.032420027893973
85,85,5.104773660558225,3.1796969132838706,1,1,15.041479049068537
86,86,6.1553601575985475,0.0,1,N/A,22.447750608184176
87,87,0.9428991786638119,0.9772916092904738,1,1,19.559578332475343
88,88,1.8700799431269644,0.9290646437745465,1,1,23.855793567284096
89,89,8.851386988423858,2.0125917310756036,1,1,15.106908729760129
90,90,6.479615714990597,2.051160412471912,1,1,13.642229666780018
91,91,1.4983149764953174,5.868258216474848,1,1,23.014440719417202
92,92,4.63883056576707,5.043227610535661,1,1,20.81621027246701
93,93,4.219109766921429,0.8582440563487925,1,1,5.32624595549755
94,94,3.477555816002418,6.318660265387157,1,1,14.096724177020398
95,95,1.9075926420599454,7.3542890225719395,1,1,12.465535059767094
96,96,4.052657265405629,0.0,1,N/A,15.199378596371401
97,97,7.583044655230118,1.805671739313508,1,1,19.741314560780054
98,98,2.5930629830789123,7.763420840370781,1,1,14.670800352496201
99,99,3.893860391774032,6.433752685224306,1,1,11.461383094337165
100,100,8.537490172444077,1.783908919324394,1,1,20.024798030164664
101,101,2.0508638240549413,2.6627255962563923,1,1,17.969258881920993
102,102,1.6668278690517968,0.0,1,N/A,15.606053651626691
103,103,2.3404929668884824,4.8717383159691865,1,1,21.723976746123007
104,104,4.831329562098753,0.0,1,N/A,14.250259007422613
105,105,8.839972964378047,7.4269777366784915,1,1,19.106845977638418
106,106,3.649578179473579,2.5007522205230814,1,1,12.183723704912541
107,107,1.3833857063924304,2.694330335483366,1,1,7.546460120066875
108,108,7.3941601568264606,0.45632419476930974,1,1,21.626989285551627
109,109,5.815255976611966,0.0,1,N/A,21.4951343815044
110,110,0.17909272661658315,5.5979929407163285,1,1,9.662468965287728
111,111,9.268065489066714,9.389161180709644,1,1,23.494668789839928
112,112,9.737472544763797,2.4155614398881085,1,1,19.169351992161303
113,113,8.390189654842588,3.60742643815688,1,1,20.255561506447457
114,114,8.557393343435907,7.789477585872611,1,1,19.702142035928038
115,115,3.284816186124848,0.0,1,N/A,23.01549177735742
116,116,8.272731741314598,4.456984714635754,1,1,17.06026065131518
117,117,4.363124469556867,6.385393847129192,1,1,19.98664899550507
118,118,3.245510917727298,1.882637871011269,1,1,21.78590410373665
119,119,0.618727454891852,8.7433563865136,1,1,12.262457703400148
120,120,6.516037306943881,4.471147854544576,1,1,14.644359693786482
121,121,9.770480694929672,8.764642407922722,1,1,19.106740605395974
122,122,7.727194938042131,0.3207397598096362,1,1,17.150704855996473
123,123,6.053584212204401,7.078379947283696,1,1,13.202261097921625
124,124,0.812526204862063,0.7250212317436022,1,1,4.460451052049014
125,125,2.5580090906756023,9.251217692099306,1,1,17.476013612910105
126,126,1.7768234204815858,0.3582184145598999,1,1,3.551020043175075
127,127,1.749228279529802,9.281825893939043,1,1,13.572534112693225
128,128,9.43914136231104,9.425144135415419,1,1,19.959647548283108
129,129,1.694503160183265,0.15333275792750678,1,1,5.314733365860325
130,130,8.398709806373125,7.63702827098586,1,1,22.132278272506866
131,131,1.1000975358488363,1.0363049704191274,1,1,17.240582487053345
132,132,5.912797993197971,4.2743913107103735,1,1,21.68719270155464
133,133,7.649409241017423,4.201939879716974,1,1,16.435471127726533
134,134,9.02455876248916,0.21441328626661482,1,1,21.298606165099454
135,135,6.556814054034822,6.6269556783129,1,1,19.09550968667449
136,136,5.8526073429663,3.0583570612133073,1,1,22.117031087180273
137,137,3.3832248097687003,5.127781568071463,1,1,22.94595282194497
138,138,1.1105123522559834,0.0,1,N/A,9.811682944143728
139,139,6.542159233292713,0.0,1,N/A,14.576786982049448
140,140,3.704795747778127,8.534372324806249,1,1,12.362044719561535
141,141,1.052508953193606,7.428104714450271,1,1,16.46969347213863
142,142,8.735714469391265,2.797440811981077,1,1,22.063329728895976
143,143,9.227363318309083,7.814325670882447,1,1,21.113240692048773
144,144,6.889844930539172,1.4484637157770952,1,1,19.444777290297814
145,145,9.002366234112746,0.8790555407207212,1,1,12.295360733331073
146,146,2.664306692685774,8.096112744583095,1,1,18.185675250118813
147,147,6.866889066046688,8.284898064867525,1,1,22.116147193580552
148,148,6.425568922496812,9.620947745212405,1,1,17.865646767116278
149,149,3.309285182138657,3.440766578687915,1,1,20.410319189632716
150,150,8.094134890742746,0.0,1,N/A,19.565538361954502
151,151,6.504369843035996,4.051785829828919,1,1,11.78289098597016
152,152,7.709305005001916,7.957657011161174,1,1,23.59387707605519
153,153,6.131339339064587,6.638041216070182,1,1,23.345687772367747
154,154,2.9594573180890436,7.472555795174066,1,1,12.061366752660973
155,155,7.047116556580231,0.4623212639058405,1,1,8.587265034329278
156,156,9.396715086912971,0.0,1,N/A,19.240882234141175
157,157,3.1613979234211396,6.868219757493468,1,1,20.730137777367688
158,158,7.194776130391375,9.995679148502482,1,1,17.327097913576395
159,159,2.1430739897905338,4.323071390971915,1,1,12.278382478447977
160,160,5.205736597436327,4.9526889035420165,1,1,21.280912706242503
161,161,7.976909278691625,9.25845941889873,1,1,23.541830982053327
162,162,8.839258068456047,0.0,1,N/A,16.65522494568519
163,163,1.000648304642452,2.2344978157724293,1,1,12.283008765458955
164,164,2.9996148132897495,7.979404888828313,1,1,16.38065486428382
165,165,5.500545791411832,3.8971486042974393,1,1,15.236421187983304
166,166,7.537605361664497,0.7688154608774145,1,1,16.205845724768185
167,167,3.9573400639239456,0.0,1,N/A,16.206565876753004
168,168,1.9009366858590049,0.0,1,N/A,10.476381601114241
169,169,7.396452130147663,0.0,1,N/A,12.84736767440713
170,170,8.214798174734026,9.10319725523917,1,1,17.634047390851304
171,171,5.009080757414694,9.301857355364572,1,1,20.125471386939225
172,172,4.807953183707014,0.0,1,N/A,13.909769367920084
173,173,4.860701114105238,9.367738525321492,1,1,20.004447729191693
174,174,0.7442692360854186,0.0,1,N/A,15.859047176966492
175,175,6.605163187299695,4.821496930657406,1,1,19.319244348704345
176,176,9.920996754835771,0.9037341429336332,1,1,13.865951642775173
177,177,7.356501098265134,1.8605855885951883,1,1,23.922004249454154
178,178,4.753187279775033,9.122695664956797,1,1,22.24552135504323
179,179,9.081482404030425,7.096669992357172,1,1,22.666514948868418
180,180,9.437090577135553,7.198011581122666,1,1,18.774376907451224
181,181,4.59998857231658,3.3509205383776655,1,1,12.84565833216061
182,182,3.4931703435001027,8.192855250646812,1,1,22.037839538122036
183,183,4.400804835752626,0.7884252968647021,1,1,21.93288871340793
184,184,1.5140990992221426,7.79166056450169,1,1,13.181187905488134
185,185,0.22022450060987242,7.08825845783341,1,1,7.466399062744203
186,186,8.293031353097362,1.7648588880554084,1,1,10.443039029590613
187,187,4.605759557718184,5.471171932686008,1,1,23.08005107766992
188,188,0.027194578999124586,9.152624205054359,1,1,14.968593960587182
189,189,9.063351329439657,0.0,1,N/A,23.03967324353379
190,190,0.15863710206252546,4.34422702688387,1,1,10.99140967282723
191,191,8.810416155326799,6.53286465124321,1,1,19.90678862120835
192,192,9.886427295422951,2.002837358832239,1,1,17.41678364921576
193,193,5.6911678565391615,8.647634815316739,1,1,21.195256830989482
194,194,7.519391302042127,0.0,1,N/A,18.121158705970558
195,195,4.9766927739340545,1.6070514952645443,1,1,11.01743045312475
196,196,2.383293841928978,7.287678990444699,1,1,12.731607219117132
197,197,1.3828410257511037,3.4948928063274263,1,1,6.075059247317623
198,198,6.605787967248408,0.0,1,N/A,23.617465156942632
199,199,0.6753359066154729,5.522384423215715,1,1,7.6236941504902225
200,200,1.6990476592017867,4.150857324870282,1,1,7.874761398445011
201,201,4.492391501316623,1.8134848888450705,1,1,16.301632337826685
202,202,2.4916442647221624,0.0,1,N/A,17.386338964970555
203,203,3.3081031681467152,1.0790237140909054,1,1,15.831626871722301
204,204,5.045060188206339,1.1783616769409955,1,1,12.38336992452821
205,205,3.9493141880284908,9.197868540178076,1,1,16.1627213596334
206,206,5.808450894773807,8.548880694762829,1,1,17.43338339303011
207,207,9.00608181855389,6.324008736743799,1,1,18.237378106243064
208,208,7.341320546316052,1.6673522174502609,1,1,11.458223859988092
209,209,1.5673613488258409,9.25679788592712,1,1,14.577774156527378
210,210,7.085403164967752,4.689880831922344,1,1,13.749952256407981
211,211,1.493676271275226,1.6283133274167239,1,1,17.58768511968028
212,212,9.501578147398012,7.284726845010337,1,1,18.755404156107712
213,213,5.727629233954713,0.0,1,N/A,18.32880290230526
214,214,0.12999667764332146,2.0939970916757025,1,1,22.051672838255413
215,215,5.458455947244797,1.5473601308094553,1,1,11.245998564734482
216,216,2.1223680533900433,0.0,1,N/A,20.71566053905509
217,217,0.08689988446204944,9.179250163108359,1,1,23.51735852231173
218,218,0.18317452722781624,2.021367901742429,1,1,23.310640312667125
219,219,4.461756860645151,7.08009805014984,1,1,13.364323716958463
220,220,4.694219241064031,9.863696719062784,1,1,19.62648173239945
221,221,9.169694826273282,0.0,1,N/A,17.640796832477776
222,222,8.911242147519395,2.9954405812615423,1,1,14.744899943841162
223,223,7.534743740107652,0.0,1,N/A,11.724002104996753
224,224,8.054695296650408,0.9006330975028609,1,1,9.860280936572996
225,225,9.344851669029607,2.989243612456299,1,1,15.275744059617537
226,226,2.5569561399079586,8.323588631198737,1,1,23.729850425815915
227,227,9.367753754224623,3.9533131163990998,1,1,14.37294907404233
228,228,6.4750432711771255,0.0,1,N/A,22.136935567559316
229,229,5.636220487652269,5.621366101663563,1,1,11.519285181339486
230,230,2.803381016943214,6.089867129018848,1,1,20.006488384450314
231,231,8.841074189056789,8.13773588394712,1,1,22.430849201470718
232,232,6.768409332508432,1.9003961365502886,1,1,14.371826251001895
233,233,1.059429156400764,1.3918583277701624,1,1,2.8999627975254563
234,234,3.005360920884849,9.243032379203488,1,1,15.979258138804852
235,235,4.90425158941323,0.44077750660818205,1,1,23.96236691328994
236,236,7.053878083364655,8.874963319139372,1,1,23.624882290238915
237,237,2.5783752702989804,0.0,1,N/A,21.58430689799113
238,238,6.99131519497135,9.615999441892939,1,1,21.228223419045406
239,239,6.211741027994248,5.900087220823319,1,1,15.025823514759402
240,240,4.9892088143535265,8.620847382676445,1,1,21.563666562935225
241,241,8.78654134519979,4.815641644782208,1,1,13.677696465283018
242,242,3.3056577858077416,1.3154575415589997,1,1,20.38504518437894
243,243,1.5005488796729616,0.0,1,N/A,21.36344939653576
244,244,0.8666590849091116,5.214946751979061,1,1,18.601097356013813
245,245,1.5840652591536775,1.6699765204263284,1,1,15.572028293514215
246,246,1.635031537892394,6.257357589964742,1,1,21.13344017977804
247,247,1.5936770524409616,1.493559065564758,1,1,10.42117895370182
248,248,9.606008662242722,0.7422793973546449,1,1,18.041052631081474
249,249,5.820004671934615,8.333926185975345,1,1,17.07754699279174
250,250,8.523771470936714,2.9986064752047192,1,1,16.25141718076218
251,251,0.5988180336456517,5.949709382418175,1,1,6.556369446451662
252,252,0.4193052362722005,5.790937051280128,1,1,23.6567161860712
253,253,4.660952456913398,4.613647393602834,1,1,11.581533601799002
254,254,1.9716646756849454,0.5263631287070625,1,1,23.09356789898394
255,255,3.697313853975511,2.653197905313932,1,1,16.542393231782214
256,256,3.0895545938007594,1.0722929451233931,1,1,22.82083590074976
257,257,0.15062616511814952,0.0,1,N/A,6.73402709301969
258,258,7.4286852192349855,6.549892526498962,1,1,21.98572089839591
259,259,0.7751571758984721,2.462824502117561,1,1,6.458946575353782
260,260,4.836184651455316,8.101751085096577,1,1,23.090336211834384
261,261,0.168487939058668,5.492878556257141,1,1,13.409407484423522
262,262,8.047349196292537,0.0,1,N/A,15.428502229622104
263,263,0.4317328941181131,8.721481004677065,1,1,13.723625106769775
264,264,1.6552610927110756,5.863692075895254,1,1,13.256577938597992
265,265,9.157678908084776,0.0,1,N/A,23.988140998662068
266,266,4.441725096103734,0.0,1,N/A,18.57888935197562
267,267,7.174438079995689,2.516104675091546,1,1,19.14830455848071
268,268,6.39268693484806,7.230693953931588,1,1,17.985283876100155
269,269,6.740386814948945,4.805067562503835,1,1,22.936065782066024
270,270,4.669015870835499,4.773111756774701,1,1,10.066105894790848
271,271,2.79426703829994,3.4114239752011377,1,1,13.787985639552055
272,272,6.9070027196023345,1.3798318740021032,1,1,19.84354991322305
273,273,2.799728129920953,8.576710552529534,1,1,23.29583440741242
274,274,0.8287397636657501,0.10659289600711386,1,1,9.89152349153701
275,275,0.8712482645787256,2.75717788086785,1,1,10.848769156357921
276,276,3.0770158708740802,7.411964135177059,1,1,15.938065826496807
277,277,3.354676916511994,6.1729215063982155,1,1,23.04949737748267
278,278,6.351360735579363,3.2439487855156734,1,1,22.88293635967488
279,279,7.899933003497845,6.294510038691621,1,1,23.643745404689408
280,280,7.590928447185824,0.0,1,N/A,16.75327061007942
281,281,1.1404801899872008,0.71298730515298,1,1,22.112937296464224
282,282,1.369806525008096,0.42764608843933405,1,1,18.426610153927424
283,283,9.456009661255907,0.7136519983506417,1,1,11.539515994319919
284,284,9.54023353138491,0.0,1,N/A,22.803703906597356
285,285,9.944085250807062,1.3207198156009925,1,1,15.183241572028603
286,286,1.323333990123976,0.0,1,N/A,13.731315893819744
287,287,3.5353910209649255,0.604115485050063,1,1,14.781114091328272
288,288,1.0165423327588696,0.0,1,N/A,8.428544456009224
289,289,8.695374414203364,7.646493869492823,1,1,17.287123591916338
290,290,4.811255915952847,6.906179290285816,1,1,12.023175727204457
291,291,5.765273673524519,9.649901153776847,1,1,18.64910461783366
292,292,7.827582267813037,3.032270534569089,1,1,13.704559291753993
293,293,4.784558695870325,1.5862022789075525,1,1,19.52809329839272
294,294,3.683740729515621,3.4249073832241494,1,1,14.659898405928388
295,295,3.115086884640105,3.9364596691111844,1,1,10.03373085600463
296,296,3.424153515660371,3.8032734164954407,1,1,19.770531174015794
297,297,3.4384491495257463,0.0,1,N/A,15.218807776690674
298,298,6.144784160869669,4.0168304021145005,1,1,23.02906746078203
299,299,4.078426104982413,9.07184541130665,1,1,19.94466080167179
300,300,5.5529520003552335,0.0,1,N/A,21.305185786670606
301,301,5.1024871889128685,4.314487496540503,1,1,11.797099073717016
302,302,0.7326170947374733,8.699987132803154,1,1,23.081970846117056
303,303,1.3044528452186666,1.8580854174340455,1,1,4.6099592647660295
304,304,3.255448526500043,2.927098906975095,1,1,11.352043307272154
305,305,7.7877173101379995,0.5554487873038372,1,1,17.516860412748002
306,306,5.75067674935637,8.532120086652366,1,1,20.11064922113007
307,307,4.015925553322456,4.251826358046637,1,1,17.57049007031581
308,308,4.352848933068534,6.477937062075181,1,1,16.754733859654394
