,Job ID,Stage-1 Processing Time,Stage-2 Processing Time,Stage-1 Machines,Stage-2 Machines,Due Time
1,1,6.546699437487115,2.438666051434517,1,1,22.19824647059878
2,2,9.581851363743185,8.336483234855345,1,1,20.457524360300045
3,3,8.659620336054832,3.4610282953309133,1,1,12.483758658670437
4,4,9.969634720486143,1.0711125909314123,1,1,16.771441548127996
5,5,3.772449924051747,0.0,1,N/A,13.756479475731162
6,6,8.26294549421483,3.6423300483852428,1,1,22.090333367314926
7,7,1.915193506875028,0.0,1,N/A,9.618605272822538
8,8,9.761850643706854,8.636900751979159,1,1,19.090147490370292
9,9,8.95685247847094,4.112433639392994,1,1,16.859903667884577
10,10,2.43513112071696,0.976200978058922,1,1,4.808847312716816
11,11,8.042362150329891,9.74189341099012,1,1,19.1761588567742
12,12,6.960571731391619,1.5794702055989407,1,1,22.036271612552085
13,13,5.861387599104425,0.0,1,N/A,19.60020123087403
14,14,3.3637413765008817,0.0,1,N/A,19.437164165930405
15,15,9.606521957441794,5.348652168681806,1,1,20.888863502474766
16,16,7.915054358133627,8.180006679673214,1,1,22.796396624293536
17,17,0.21481420932187967,6.961141243268783,1,1,21.784405941909785
18,18,5.051526030546708,8.244122639868248,1,1,14.145412312829562
19,19,3.57834459203087,8.763917592489875,1,1,18.00337310108253
20,20,9.02707259736091,6.176815552918475,1,1,17.699982670413466
21,21,2.715289545165296,0.0,1,N/A,22.154566667390448
22,22,9.212192112036137,7.791718844634646,1,1,17.052383770098928
23,23,6.667042778329138,0.0,1,N/A,19.257649823802307
24,24,8.963117077644329,5.665368070504617,1,1,20.721992332916827
25,25,9.428535771709157,5.521665590280769,1,1,23.452357752636004
26,26,8.457143585186202,0.0,1,N/A,23.757733643721778
27,27,0.18706214450208258,2.2318993288662394,1,1,15.200739046210595
28,28,4.043362389440799,0.0,1,N/A,16.840252456121117
29,29,2.419060330662205,8.918022257144987,1,1,15.859815621871375
30,30,9.792407088548918,1.462808181848757,1,1,19.556077633134436
31,31,1.2905867566569462,7.523130886176061,1,1,17.05131172843134
32,32,3.9062404581180274,0.0,1,N/A,23.15906036731566
33,33,6.920571354409544,0.5162562728900655,1,1,15.613184945402708
34,34,5.569631530638802,0.0,1,N/A,20.327073416097008
35,35,0.1300565027831524,1.7326805218854413,1,1,9.64063789993198
36,36,1.747205470718386,6.537123743844048,1,1,11.996246245314495
37,37,0.5706576140739039,2.349606030073068,1,1,5.468502878603892
38,38,1.200869366194346,5.901088525979513,1,1,14.402441503099851
39,39,7.383446720533927,2.938378597694128,1,1,12.236038407325985
40,40,3.3561591553387258,0.17661344498625442,1,1,19.719434082879395
41,41,5.39325768225726,3.3258456324679275,1,1,13.76689994307419
42,42,4.2269109766601805,8.811002077478234,1,1,13.300848977998
43,43,6.779261312658214,6.277530287334027,1,1,13.26569653426883
44,44,6.318982371112513,0.0,1,N/A,21.735390215139066
45,45,6.441113614052991,4.842763038845883,1,1,19.318507801833963
46,46,5.22286670646658,3.9532233320141152,1,1,14.209044303249136
47,47,8.027368641027989,0.0,1,N/A,13.209486026246648
48,48,5.568332886474269,6.900973592523995,1,1,18.656229113624242
49,49,4.507725708363557,6.422842047298104,1,1,20.700273160933612
50,50,0.7119994207342928,0.0,1,N/A,12.243179029289742
51,51,9.85269539707877,5.973051430109756,1,1,19.297887845101982
52,52,6.779246932067371,4.89044452629247,1,1,13.746733142515687
53,53,9.056338867419777,2.3431099008302403,1,1,23.2080302836425
54,54,4.898068224628106,8.308351310863753,1,1,23.087816013488396
55,55,2.7648279796851574,5.91017651968833,1,1,18.001133785127067
56,56,1.2126111701777842,8.828525028604144,1,1,21.822689890647776
57,57,7.176521346842303,7.453248141708873,1,1,20.156350727812544
58,58,4.911927013417495,1.6582083750980137,1,1,12.878158991188325
59,59,5.506533532377161,9.412620499964698,1,1,21.669008223253833
60,60,7.6079889323027245,0.0,1,N/A,23.068474457945857
61,61,4.243809350926533,8.926438412183842,1,1,18.941567920863335
62,62,6.042165668836409,0.0,1,N/A,23.659401484822947
63,63,9.886292936889602,7.14259693153662,1,1,20.455861904325264
64,64,6.488255494720244,2.6757818178058654,1,1,18.157818741532715
65,65,6.506291634027354,0.0,1,N/A,8.939364604444926
66,66,8.881588570649638,4.239473676338317,1,1,19.017205883931236
67,67,1.6522935922238724,0.0,1,N/A,18.746327139413143
68,68,0.06451951285977864,2.470090651020053,1,1,2.584912027248065
69,69,9.313580678702673,3.2538506392277435,1,1,23.6690873260184
70,70,8.365136343683126,0.9276666791070309,1,1,18.67253476698859
71,71,1.8556363328565262,7.329884738051994,1,1,9.945628537000061
72,72,2.70661463398711,0.0,1,N/A,11.039126467089034
73,73,6.158820696522167,1.6053976932581804,1,1,17.509216784663202
74,74,8.689820619942918,5.11621856772731,1,1,16.106876030531218
75,75,5.450560160798078,0.36151749178780057,1,1,12.18694464278662
76,76,5.388827999042569,1.4879574123004546,1,1,16.754265737681003
77,77,3.9808636317517254,4.055048648935382,1,1,19.5408443265979
78,78,9.906459766259486,4.284854179038642,1,1,19.683450400234854
79,79,8.3525209713263,5.061168882645019,1,1,17.128329572109664
80,80,6.791520768075319,3.425518147024543,1,1,20.78110839367747
81,81,5.890300833272679,0.4428040591589988,1,1,21.54269798579724
82,82,6.41425339724891,8.066202793358887,1,1,14.812921351096598
83,83,4.568970614394299,8.171511258376293,1,1,15.961867504421283
84,84,8.941627605776745,0.0,1,N/A,13.939710518997728
85,85,7.9259991809648795,4.285119586002539,1,1,14.113196242112018
86,86,4.326847962917038,6.403395508524069,1,1,10.738773172439767
87,87,9.607954166573235,9.898811108618217,1,1,19.73069381759372
88,88,8.227129089621046,2.5868360915483315,1,1,14.476794637086218
89,89,1.0118993481740157,8.743532007722711,1,1,15.551865051735891
90,90,3.0341996439899566,4.780196532258895,1,1,12.332649229149144
91,91,9.975589159883876,6.91457931396429,1,1,22.692377301422887
92,92,4.2090633014452195,0.0,1,N/A,9.993446836192575
93,93,2.4605520011044546,0.0,1,N/A,7.989411528115792
94,94,4.618950151647926,0.0,1,N/A,7.363786863618779
95,95,5.445892879066749,2.5050797906635602,1,1,8.692118835052709
96,96,1.677755769788033,6.422895794659645,1,1,22.23816590436642
97,97,2.6626848792837055,0.9890157658080323,1,1,22.10519380839552
98,98,1.7658092567377337,0.0,1,N/A,17.14274214246385
99,99,0.5503462923529345,7.757034727789356,1,1,22.018644888024195
100,100,1.0243610280654614,9.094902401114771,1,1,17.070796671973305
101,101,6.460237039443811,9.951136077458527,1,1,22.71664533024753
102,102,3.7118973961470125,0.0,1,N/A,19.05786779813245
103,103,8.499080091281009,4.05376633188089,1,1,20.7676734804543
104,104,5.011907531525481,9.904616699387592,1,1,19.38588712723978
105,105,3.4014670783593792,0.10967630264675843,1,1,8.798421791281475
106,106,7.248022866812559,0.5944243794203885,1,1,20.953499101340967
107,107,8.513149225737047,2.0208956349425478,1,1,23.167475430624982
108,108,4.01926507635134,5.634630000307319,1,1,23.041931773742338
109,109,7.2289938979507395,4.9736694537406585,1,1,17.29721178894335
110,110,8.490654446690401,5.0239295121493335,1,1,16.47806719051644
111,111,2.824792531387521,7.774079543988437,1,1,15.552221758328056
112,112,7.68499327558774,6.435848070407818,1,1,21.431553862530677
113,113,0.33429471431284163,8.354066085544918,1,1,10.072206248273087
114,114,6.118147446864169,3.833924884021178,1,1,11.91166671772326
115,115,6.763802135268849,9.797526654488461,1,1,17.310237432974937
116,116,1.582266674977174,1.0270642829164567,1,1,22.400868379781222
117,117,3.922327379782841,8.921367369899155,1,1,14.987792377945723
118,118,4.246040807662718,6.238501140709238,1,1,18.182103747404803
119,119,4.143946953798116,5.090756447442183,1,1,16.752788387685612
120,120,6.770498533862131,2.938489639023566,1,1,21.923803821071147
121,121,6.209427789424021,0.0,1,N/A,17.361288906948843
122,122,9.192542274486625,0.3682138343437591,1,1,18.41222957546333
123,123,8.366861111849476,0.0,1,N/A,23.420223076460225
124,124,9.400273474746177,0.0,1,N/A,15.897135586522824
125,125,7.290838790710842,0.0,1,N/A,13.054751104207638
126,126,1.2177632343371358,7.541269812602371,1,1,14.037541385718228
127,127,1.5104734060256975,5.545183587323882,1,1,15.423865462512865
128,128,9.133893732369378,6.204187789847405,1,1,17.613603756826322
129,129,3.250313956813753,2.3516317485308047,1,1,12.765128543896076
130,130,4.531023236138428,0.0,1,N/A,10.226873782348413
131,131,0.5471564102731397,3.7016537082920653,1,1,17.20874481489071
132,132,9.736498904179458,2.4525463043119435,1,1,21.317863157800154
133,133,9.040665811553044,1.1956701551621018,1,1,23.621335893804094
134,134,9.392894196358403,0.0,1,N/A,22.26051692243727
135,135,6.186218646825462,0.0,1,N/A,14.493386508993972
136,136,2.670309807436504,1.6073901278105807,1,1,10.399522104467609
137,137,0.4184491368069443,2.746016861996845,1,1,3.738353559363344
138,138,5.756262981595841,0.0,1,N/A,13.49059531977663
139,139,7.749343564860593,9.904621071449476,1,1,19.206788690832013
140,140,3.458105863474039,4.369343311140824,1,1,8.688465827015438
141,141,1.9715623809746141,8.614073140975835,1,1,12.949695061104455
142,142,7.940260583757357,0.6748750708770557,1,1,17.28687574778692
143,143,6.572628277605991,4.857646796225853,1,1,19.743536128685292
144,144,9.163381720615723,7.85764007625488,1,1,20.0127847257898
145,145,2.0891526020214957,0.0,1,N/A,12.84641641297011
146,146,1.981171498631823,4.15574773879364,1,1,6.217739141317211
147,147,6.060245170117988,0.6575168755726968,1,1,12.297669155736365
148,148,6.918921457167936,0.0,1,N/A,16.878188518132514
149,149,2.3324599917787205,0.0,1,N/A,9.391384697621815
150,150,4.8025982077228,5.13583534734317,1,1,14.7766164449651
151,151,3.091348444493475,0.0,1,N/A,22.240953956764567
152,152,5.011489514076841,7.122054740538526,1,1,13.857610956035685
153,153,2.475945586536298,0.0,1,N/A,18.3547896403663
154,154,6.021109860804316,1.0040493323476385,1,1,15.094330121534089
155,155,2.917673132575337,9.343421661455315,1,1,16.929877798573468
156,156,4.93281344769967,5.317335214257643,1,1,23.563855159544133
157,157,5.240149928665935,0.851658008993671,1,1,21.57521775613626
158,158,4.775634872295516,2.938282409257323,1,1,23.747144948272624
159,159,4.093827593496161,5.5925301727723635,1,1,23.612342089216344
160,160,7.89018556541812,2.8160129669595135,1,1,23.242394451353455
161,161,6.987543548277952,4.708937629237373,1,1,14.679014717774406
162,162,3.1692678859025545,5.565287959068538,1,1,11.127500635716416
163,163,0.05542504406590543,2.842765502212452,1,1,4.06285413372626
164,164,9.566563362950227,0.0,1,N/A,18.384792455784993
165,165,8.155908767209745,0.7934605253249738,1,1,18.42574183999809
166,166,5.53065657071783,5.6421504047095326,1,1,16.434233812683985
167,167,7.805556511770933,0.0,1,N/A,15.595159376049992
168,168,6.66072008699711,3.1897329632549933,1,1,10.1268498418467
169,169,0.686355256723904,0.0,1,N/A,19.23842925702065
170,170,2.1696997489668446,3.335177711496593,1,1,13.306318742969284
171,171,1.2214837863250227,0.2678269813234613,1,1,16.30233662605626
172,172,2.8564222161787955,0.0,1,N/A,6.299914329661166
173,173,7.632321726660266,5.896790221895376,1,1,21.951389235286406
174,174,6.412572175533912,1.8081799280027488,1,1,13.111072344763782
175,175,5.093990006420932,9.91253843847146,1,1,21.73310797635574
176,176,7.350061625653249,1.0736430518358286,1,1,12.867419320503743
177,177,3.8230876418610893,7.053508416085385,1,1,17.803202971083678
178,178,5.875975826447844,6.178459629426193,1,1,19.707269247942623
179,179,5.491192068187009,1.707327986411038,1,1,9.080118205543151
180,180,5.134288767040662,7.793253511558843,1,1,18.87499251628293
181,181,8.48662809039739,0.0,1,N/A,22.08815386199175
182,182,7.332609605987085,0.0,1,N/A,13.606054837442983
183,183,9.427245849283594,0.0,1,N/A,16.52943416896121
184,184,2.684925241343322,9.951623202615906,1,1,22.34730942802054
185,185,2.8898544376620947,2.0310759112240664,1,1,9.587869461264226
186,186,7.088181785636073,5.485698758033413,1,1,14.161261166068602
187,187,4.151673394942557,6.596658481919669,1,1,18.92582935494508
188,188,1.9294631109097282,4.451294521611107,1,1,19.39812495722291
189,189,1.0909663403042835,0.0,1,N/A,13.580321209548337
190,190,2.7955566836211676,0.0,1,N/A,16.13067829324894
191,191,0.17766590138742377,0.7407076451191308,1,1,17.036851042347045
192,192,1.3255526878110513,3.231064893093417,1,1,7.173749112320541
193,193,5.756993088708018,0.0,1,N/A,18.83723267138246
194,194,3.374983927231602,7.877319247175308,1,1,16.423571501936745
195,195,5.06097337292386,4.349067130879702,1,1,22.732978266135245
196,196,1.2141289028095092,3.82197282867232,1,1,16.519016252874877
197,197,2.815853792327073,0.39433908682672714,1,1,16.606875508201124
198,198,3.653516961805644,1.7251150725937758,1,1,16.083643333007853
199,199,2.7112641934454693,4.018227021997075,1,1,14.342682119113439
200,200,3.870898032642663,9.407727821144917,1,1,20.807958234374052
201,201,5.627908039517382,4.893267587538509,1,1,16.9505701858642
202,202,4.800573266378904,0.0,1,N/A,11.456757553368975
203,203,7.945785687386938,0.0,1,N/A,21.93851663631836
204,204,8.100534913590012,5.704658169809499,1,1,21.84811020855073
205,205,0.11144531633154653,6.202355635523232,1,1,10.30066910436984
206,206,5.324671496459876,6.678186044758597,1,1,17.261600219516794
207,207,4.617556596435396,5.666455528023166,1,1,15.271023167611641
208,208,8.36211311225682,0.7010627755198928,1,1,16.978499009427686
209,209,0.7471964770663675,0.0,1,N/A,22.503658550050005
210,210,1.8779111073344545,0.0,1,N/A,6.362508405655756
211,211,4.269057863284863,5.520016094987032,1,1,13.15120458650103
212,212,3.5248769923491494,2.7961471928713335,1,1,13.805881964167423
213,213,7.715283254880029,6.734897694445754,1,1,15.138079390821764
214,214,3.7724825677565788,9.4252832747948,1,1,15.386196798450484
215,215,8.557369043424952,6.7819664699943125,1,1,15.465168276251447
216,216,7.028268689866771,9.010906514548068,1,1,22.575506282978473
217,217,7.15767541583419,5.895295417561643,1,1,15.304107584210644
218,218,7.064203423159469,4.783072221954336,1,1,16.464607748705163
219,219,7.499897059910462,0.0,1,N/A,15.059104824821514
220,220,1.223609873470255,1.7478215247653306,1,1,3.2981252712987636
221,221,4.424989297760384,3.8488786057669144,1,1,20.106190768852496
222,222,5.42637215140208,3.4288059240189606,1,1,13.269276072118743
223,223,8.136392616794554,0.587827608858823,1,1,16.928981073179976
224,224,1.9094629410983044,5.067146262088902,1,1,18.135502440320092
225,225,9.115002667430911,5.4073387132462,1,1,20.904263360109077
226,226,3.576993151960081,0.787001284950033,1,1,7.157463543681624
227,227,1.2019349600726559,1.2300989442353638,1,1,3.272743350146186
228,228,8.76800180204712,8.403672664014657,1,1,17.33680288942007
229,229,7.233339185971933,3.8946034428574583,1,1,11.3202448752996
230,230,8.688670109494383,2.8404113899619765,1,1,15.898985983571198
231,231,7.724354334809318,2.7122343259061674,1,1,17.398395565648162
232,232,2.0316170589999305,8.679519759617897,1,1,19.050399618055092
233,233,8.937319182781113,5.356771319616788,1,1,18.059963752777044
234,234,6.369584826205231,0.9412760824977506,1,1,12.996287988292035
235,235,8.509966073176265,9.666931508246089,1,1,23.25847412788375
236,236,9.650222549157775,5.015415921452465,1,1,17.88180647444488
237,237,1.8840138228185377,9.839053031580951,1,1,19.359840337253527
238,238,5.205340878253502,0.0,1,N/A,23.97763954007894
239,239,9.888652111867572,0.7403912665672818,1,1,23.693950773903385
240,240,6.034285558943955,2.9588502014444753,1,1,23.24112361669557
241,241,6.044138844253487,0.9624564370363231,1,1,19.72607447873553
242,242,4.942161074148448,4.192628508542761,1,1,11.796992802838327
243,243,3.7391867629558373,9.262995100952802,1,1,14.531922444126
244,244,2.9766465352807128,5.840621659438472,1,1,17.12899388810944
245,245,5.267624750844152,2.994195037147608,1,1,22.590075317838874
246,246,6.536597182227347,4.287615056492735,1,1,23.545105219824496
247,247,2.855696912912682,9.55387427558946,1,1,18.179356040731896
248,248,3.5382741992175637,0.0,1,N/A,23.528613091558142
249,249,2.7011866549643715,9.008970405855163,1,1,23.384964685970182
250,250,4.0572275119296926,8.957851770898358,1,1,23.002882402989123
251,251,3.3206667448332947,9.407996264067165,1,1,16.018945957558955
252,252,0.9950575443298715,0.0,1,N/A,13.764064383644074
253,253,8.401000519940586,5.26508396664119,1,1,16.056359113348968
254,254,1.0978648497883625,0.0,1,N/A,17.176176266486365
255,255,5.852436329070146,4.060169687984711,1,1,18.378369513084124
256,256,1.2628690408028942,7.0962027802670935,1,1,17.76407968194601
257,257,8.659379749292004,4.046752145517508,1,1,23.717177672268484
258,258,5.970606122817076,5.66975728104242,1,1,12.16657156640786
259,259,4.524874424458751,0.0,1,N/A,12.767202423338311
260,260,3.0735020395276145,2.6155436479978023,1,1,19.77260810396326
261,261,2.083071041416674,7.98854555301427,1,1,20.464599672772728
262,262,7.374483183715521,9.424029818768602,1,1,21.290825477558307
263,263,7.455560242595034,5.487853784101566,1,1,22.828579094050504
264,264,9.280880211145735,0.0,1,N/A,17.107870138214704
265,265,8.758494223323229,0.18602450591993613,1,1,23.198714473301603
266,266,9.70895124688225,1.2810888775865803,1,1,21.0087086069656
267,267,3.670489139887363,1.3276858980230477,1,1,16.723022860315957
268,268,8.426215784713591,1.8252792098091852,1,1,14.660643828497651
269,269,2.643562944379756,4.189614824027865,1,1,12.915537345442981
270,270,8.971297554225679,4.082811696937366,1,1,15.360528691543061
271,271,7.687113097712608,3.7661293971694763,1,1,22.525854363680295
272,272,7.937046405741189,0.0,1,N/A,11.00548325590579
273,273,2.94622539258968,5.288264325130077,1,1,12.833972135459646
274,274,2.935347188184366,9.62701514136648,1,1,23.8065131320826
275,275,1.4650285934139184,7.236358327897268,1,1,19.41077792290933
276,276,0.3761405773491844,8.851559487040596,1,1,10.906358986798134
277,277,9.11565355448759,6.472054185076167,1,1,21.334785252411724
278,278,7.512831066554304,3.708828029700133,1,1,15.757049079401625
279,279,9.67082727494817,7.87266431119054,1,1,23.119820377025007
280,280,7.944493932739752,0.036516789488473256,1,1,23.989600806258778
281,281,3.8846291069394,6.578613056994163,1,1,13.34328040469862
282,282,1.4935848893523418,2.571877750373347,1,1,5.415949455073003
283,283,4.378258474213169,0.0,1,N/A,10.74358570027456
284,284,6.196553615299506,6.943592463556039,1,1,13.795820113449421
285,285,7.863702522596226,3.7224169866025414,1,1,15.070553431426578
286,286,5.528497407783632,5.601505905130963,1,1,22.384242719139586
287,287,3.816045524428665,0.0,1,N/A,23.28184118175828
288,288,7.181339066451972,2.847142219550123,1,1,14.48722028435097
289,289,6.74467836334487,0.0,1,N/A,21.570709428917112
290,290,1.0626729006854008,2.2020997297844156,1,1,18.101974135654665
291,291,1.3281337291934003,4.408224988803873,1,1,22.370606549365633
292,292,3.569835519334965,9.406526458409838,1,1,15.929276792795733
293,293,7.365246931254679,0.6528276773718,1,1,19.622477146969967
294,294,0.888740778244943,0.0,1,N/A,18.985488625631497
295,295,7.140892067113553,0.0,1,N/A,16.545528920869938
296,296,2.710924481051522,5.980952014471735,1,1,17.3515243310016
297,297,4.294165135073895,0.0,1,N/A,15.730852579516597
298,298,6.354681361163024,5.980894218659358,1,1,17.50814051796223
299,299,5.9021097361990496,2.390461675917207,1,1,15.61889264009581
300,300,1.4899017152951333,1.1402236549901157,1,1,19.49937037328872
301,301,2.364455109762144,4.444283244590559,1,1,8.217466073538548
302,302,6.465920006036052,6.536021094092629,1,1,22.21283440913303
303,303,5.320725360439322,9.29070528086287,1,1,15.085341360577472
304,304,5.209102779964464,2.831999960395102,1,1,19.608763711134575
305,305,6.047031610194261,9.045029674497394,1,1,15.980459696226273
306,306,4.124532100778209,4.955395308658996,1,1,21.014858413335922
307,307,9.447674513448124,3.1238383289092786,1,1,23.43517273804296
308,308,5.068763524389688,1.0918238919054357,1,1,20.556924997664982
309,309,9.487599204507042,0.3242890175602897,1,1,16.58657236711621
310,310,9.477961754992641,6.680241587119901,1,1,21.094619462330634
311,311,8.049093692578747,0.0,1,N/A,13.095337648224097
312,312,3.248499676345382,0.9979450924535427,1,1,12.409603731868016
