,Job ID,Stage-1 Processing Time,Stage-2 Processing Time,Stage-1 Machines,Stage-2 Machines,Due Time
1,1,8.69853776770203,0.0,1,N/A,18.691899481212833
2,2,7.632831600384243,0.0,1,N/A,18.85669049567926
3,3,1.6109593140688183,8.92805413199583,1,1,16.872606106064232
4,4,9.048102435675506,6.0388019172338945,1,1,15.837947344423286
5,5,5.1952109930395025,9.29074819906851,1,1,17.796561778776958
6,6,6.5098025967869555,6.221496257917936,1,1,13.479386471954156
7,7,4.84423731975113,3.1275408169829477,1,1,18.948942667482264
8,8,4.860866862716691,0.0,1,N/A,14.389477644510604
9,9,9.91653809090621,0.7671449104542283,1,1,16.110484567908316
10,10,5.149138300234783,3.360454924635725,1,1,19.442168598892273
11,11,0.6314073151847277,8.818953641016112,1,1,13.079971208836895
12,12,0.04092395021492834,9.674009548199907,1,1,16.75444016992021
13,13,0.8526048601542402,8.5701291502996,1,1,15.942176825011028
14,14,6.142703118568489,0.0,1,N/A,22.86506044410651
15,15,1.7440009128798195,0.0,1,N/A,14.508780852654592
16,16,4.703033274664748,5.794098064990086,1,1,19.845710490521597
17,17,5.108033547802502,7.054427730714537,1,1,14.414137620934255
18,18,3.407751604032229,2.102177176581982,1,1,21.781441534990023
19,19,4.4779989507354445,5.2713659245496745,1,1,13.906030858553216
20,20,5.8472854694667165,2.8528352582961536,1,1,19.612607527035152
21,21,9.265823186689833,5.29470242699402,1,1,16.877967609634887
22,22,9.668150289370809,2.5808803467720853,1,1,17.981085018169804
23,23,5.867009431571734,5.1554713326872434,1,1,22.23477150559334
24,24,6.612167918345961,5.954348619276493,1,1,19.62239172698809
25,25,0.43901369246685085,1.3614451441528097,1,1,14.475477920597712
26,26,8.58558365769622,4.952825231301658,1,1,14.221966800557272
27,27,6.971204229017896,9.059748825849683,1,1,18.5565339857064
28,28,0.09726583305397218,8.014061507564117,1,1,16.826346370987228
29,29,4.047109018791037,8.652496822961842,1,1,23.481385353248832
30,30,5.495963891825289,6.135928915610739,1,1,17.248968454583228
31,31,2.0690596594177624,4.683260614156133,1,1,9.006445930150953
32,32,8.715600150886727,0.0,1,N/A,19.787971619712167
33,33,9.173942532412786,7.550211053241119,1,1,22.882736049299506
34,34,7.245374178894571,2.6462498939239,1,1,15.958699779061025
35,35,6.340382743070983,0.0,1,N/A,16.600402533486076
36,36,5.244995840121099,9.733429724297606,1,1,20.046968645449216
37,37,6.810023625968982,1.5363996011316472,1,1,15.554860889714716
38,38,7.351034829651675,3.775615251337805,1,1,16.565903322228834
39,39,2.4776656388592997,8.303341168834555,1,1,20.45879720671617
40,40,6.206506574809293,1.717497921663701,1,1,20.50578158490897
41,41,4.555496183347651,4.6043099163089956,1,1,17.10911003205988
42,42,2.9327236394449727,1.700717680944932,1,1,11.968440643617754
43,43,7.012792821165126,5.3924351089568,1,1,23.100922925382385
44,44,1.1145680960850757,0.0,1,N/A,10.284417606302547
45,45,4.064494058661644,0.0,1,N/A,13.712814856342387
46,46,3.5424016347849863,8.144292858191415,1,1,16.867401261548164
47,47,0.7170735928401717,0.0,1,N/A,11.76552177081567
48,48,6.661228282652783,7.206774397376741,1,1,17.563522427076926
49,49,7.691698103537126,3.873872961817203,1,1,23.12560453790218
50,50,1.1213986421765831,0.0,1,N/A,16.569155782430514
51,51,4.101585067390193,3.8396893017498557,1,1,22.6310719367437
52,52,3.9987387811250708,9.442285612439731,1,1,16.465991766599412
53,53,0.19828264261063655,7.839075569646545,1,1,18.506837840874965
54,54,5.647359095683463,8.01869857310869,1,1,21.826587985477683
55,55,2.7681860249364676,2.180049196239687,1,1,5.967882046997417
56,56,0.35107699470907416,0.0,1,N/A,16.177215919164723
57,57,2.836201243269443,0.0,1,N/A,4.841587979468377
58,58,1.9596242338564507,1.4478402097615395,1,1,13.254441051503694
59,59,9.212855389955651,6.65994718764553,1,1,18.389358317774292
60,60,3.9503267929498476,5.6953698798190455,1,1,17.54030175657053
61,61,9.421635666011236,0.0,1,N/A,19.28241750919849
62,62,7.99278438180618,8.125401436750723,1,1,22.090717331757716
63,63,6.921649445159355,1.7894712649900801,1,1,20.044071997545096
64,64,2.1331608796675825,8.793896744110203,1,1,18.906328359311136
65,65,3.9521224203677487,6.70583103992654,1,1,23.22999085777868
66,66,5.128568598937397,6.523993875029026,1,1,15.360808878413714
67,67,2.346437703839924,1.3821522291633115,1,1,6.969028111423533
68,68,2.1189701126793983,3.386755969564985,1,1,15.45140431450229
69,69,0.4475854631391485,6.7801604962483095,1,1,10.66934298155877
70,70,9.127651341522649,0.0,1,N/A,13.723904424652591
71,71,7.470578302400257,7.092765875640028,1,1,17.905924855804393
72,72,5.512553512937256,3.4930296186947296,1,1,17.410628550033074
73,73,7.722428365861711,5.755619657878313,1,1,20.86742308474183
74,74,1.9304599632017527,0.0,1,N/A,16.288658294075145
75,75,3.489536659987179,0.9384420399752014,1,1,12.70866955952446
76,76,9.088642328548804,9.729357164652384,1,1,22.250611756408908
77,77,0.4613208225609333,6.039859555795129,1,1,13.826372313440876
78,78,8.37638150837994,3.3734151523695513,1,1,13.805574549559912
79,79,1.2534386101690143,2.7892069917062514,1,1,15.43554950304896
80,80,7.346483613517471,7.199261305679427,1,1,21.356893917988636
81,81,9.756195680687402,8.147563146254512,1,1,20.86868028246262
82,82,7.506539193269788,2.388929755893777,1,1,19.73713751597893
83,83,5.8892981366724895,6.671246870900985,1,1,20.324429704003187
84,84,2.0139940710224202,8.277399277905342,1,1,22.331496640966265
85,85,8.00397498130286,0.0,1,N/A,14.367468682783882
86,86,8.889279513539494,0.0,1,N/A,22.24294630522447
87,87,2.3373795061591105,9.34307263418537,1,1,23.977281643950626
88,88,1.3532946433856574,3.037766537855883,1,1,11.679209692206278
89,89,1.3205481130436647,1.8241941118392069,1,1,21.094662711854426
90,90,7.702690639731911,3.063668841696198,1,1,12.578397948358994
91,91,1.3328472464905028,0.0,1,N/A,11.392418210865111
92,92,6.107129191858318,0.0,1,N/A,14.977985327625785
93,93,1.8725098265425355,9.619440482601323,1,1,16.643683647299444
94,94,8.50091722564125,7.825287689223269,1,1,20.987538158733525
95,95,8.989633540790095,3.314100366896585,1,1,13.571300815732215
96,96,1.6759060322814545,7.754955877385963,1,1,14.5158133072931
97,97,4.9132852013959925,3.0095219706575014,1,1,20.39970880512134
98,98,8.288429498000207,5.704412203551613,1,1,14.44541739871068
99,99,6.266016347880873,7.403500169410908,1,1,14.101255131797307
100,100,3.0428391166135285,0.04795000145798034,1,1,7.375911160948582
101,101,8.784486045422945,0.8914253833073427,1,1,11.581534179008834
102,102,9.92565096708606,2.982745767144197,1,1,18.726688866424205
103,103,3.7891506510834763,2.7079853927209987,1,1,8.162441056515076
104,104,5.554689272118716,4.939673307237945,1,1,12.458803963405797
105,105,1.8799519643316542,3.507892379092974,1,1,7.844510042893845
106,106,0.598912555059925,2.702764279065124,1,1,9.459532149325947
107,107,9.94081434741238,0.0,1,N/A,15.960664422495661
108,108,5.892286976210022,2.462128384881267,1,1,9.633394223836431
109,109,8.675191315498576,6.152891943354538,1,1,15.286397761232841
110,110,4.5830765388595704,7.524448377246385,1,1,14.597474230192859
111,111,5.872384226547977,8.767366059709918,1,1,20.105887793813956
112,112,5.08484505852558,2.065707202152436,1,1,23.942406696396255
113,113,6.197372073269712,5.443856923369128,1,1,20.11207833407091
114,114,3.948550622170124,1.5776393590304671,1,1,20.34976883756255
115,115,9.405599533211651,8.40141442917429,1,1,20.757732876369136
116,116,0.3952829566981142,5.399417587251165,1,1,10.86658050960756
117,117,9.691483480260962,4.414571178123544,1,1,18.439800673892762
118,118,6.721623494060109,9.126512773332568,1,1,22.53442475977966
119,119,0.5865859242200511,7.345491138889559,1,1,10.654592367230384
120,120,1.5035199189252402,6.997872786068155,1,1,15.425774158232954
121,121,7.2819834710954865,2.0459292806174934,1,1,14.5249326545182
122,122,8.180195171413704,0.0,1,N/A,15.287649149656868
123,123,2.505443180279021,1.723224445138326,1,1,11.99531336308479
124,124,1.7352514401544539,0.10352806215059629,1,1,2.4746622002372236
125,125,8.860837416473984,3.914828379842742,1,1,22.46750960475552
126,126,3.9921863168175986,0.40031905762908604,1,1,13.934842647510168
127,127,6.495566837484245,3.998501548530001,1,1,11.966332848520631
128,128,6.435209570853148,2.3531291232818696,1,1,12.126079795383452
129,129,8.343961117399324,0.0,1,N/A,18.706512927469582
130,130,9.910982352629688,0.0,1,N/A,18.733773220707263
131,131,4.873019913780342,2.5763438473947833,1,1,20.80216490107871
132,132,9.834216990255658,6.439470041104563,1,1,22.335734346919935
133,133,5.256805792028811,2.7693783975362454,1,1,9.457702462999796
134,134,9.513666954804556,6.2003110460698885,1,1,16.116198954755532
135,135,6.612519540847415,6.870243540115205,1,1,21.44687010095111
136,136,8.724987003442454,4.263276960961844,1,1,20.110085531248014
137,137,9.848390426931926,9.89051550782723,1,1,23.320231997756572
138,138,0.2784523835511976,6.6703740654156185,1,1,13.970145705830976
139,139,3.4136187752163827,3.7583410374224813,1,1,13.866932129634574
140,140,7.345124721704229,0.0,1,N/A,18.399888854789083
141,141,6.852349310306374,8.209258183525517,1,1,15.256568307104645
142,142,6.56333561869558,3.723294711385585,1,1,18.533189904338002
143,143,4.721487627158588,8.229341462257464,1,1,14.972944919900774
144,144,5.753327379362433,0.2688101963922529,1,1,11.819074674674663
145,145,7.603021731354459,0.43267131180293017,1,1,10.961346458968444
146,146,7.982790826797299,0.0,1,N/A,23.247694324622024
147,147,6.05108230273732,4.990674308333235,1,1,13.094169999739094
148,148,2.8698003688202123,3.8824577464144925,1,1,8.14644704358133
149,149,8.537692761241445,0.0,1,N/A,22.098558992041283
150,150,1.888417070189704,9.713573896153108,1,1,20.021827505777747
151,151,0.42159631453285384,9.061325026094769,1,1,23.908913237803528
152,152,0.07870353720096812,4.899996728376589,1,1,21.177397643277768
153,153,8.30964125420521,6.789423298089286,1,1,16.627628675289774
154,154,9.548552342070291,0.0,1,N/A,20.600715301077862
155,155,5.768358512470176,5.645741754741046,1,1,21.461236112563405
156,156,6.972819687682051,0.4594813603461467,1,1,19.961732680691153
157,157,4.132378952214269,3.710364472121829,1,1,22.89424377195159
158,158,5.084660349796963,0.0,1,N/A,15.291066835496663
159,159,4.443492881221252,5.0231751527178226,1,1,17.28466928955513
160,160,0.25728068462133047,4.599134782551193,1,1,13.254093768735958
161,161,5.077987084660107,8.337684082108145,1,1,22.313580321258762
162,162,7.009063298003121,2.7362293771152366,1,1,19.86622060776727
163,163,0.251488682299994,2.7497733792477352,1,1,3.2854982178846805
164,164,1.0444798675057498,0.0,1,N/A,15.123192552750346
165,165,8.016756788460462,6.606028917648544,1,1,17.929664382382974
166,166,5.540944434027692,6.907480828900514,1,1,23.692704110783787
167,167,9.218499208127492,0.0,1,N/A,18.9690106543319
168,168,1.159524020470707,2.8487690730157356,1,1,19.023636679893336
169,169,2.1867250205900444,2.103046361404898,1,1,10.42346072527722
170,170,2.1690375585639163,3.257357596494942,1,1,18.870097181183677
171,171,8.618885346245824,7.901474445012713,1,1,18.16030744723349
172,172,9.688801813367746,3.093764835624093,1,1,22.07417116413663
173,173,7.232590772470862,7.848851537955226,1,1,21.37151973493616
174,174,6.633948166815534,8.432250043523265,1,1,17.368126770970346
175,175,8.81110283199991,8.082729954687206,1,1,23.058420425345492
176,176,1.0536443646145377,1.495313517496314,1,1,17.37640217167361
177,177,9.64801778423892,2.5018781251905664,1,1,23.84456981411119
178,178,6.504572227590812,5.097362821026957,1,1,22.267708398929727
179,179,7.4991797784685925,0.20234314960420385,1,1,17.275374627678254
180,180,6.492737196259528,1.716297287096371,1,1,20.36467085430977
181,181,2.0721489088689014,6.366538438398413,1,1,11.502228658114287
182,182,9.936360626819663,3.0753575244041875,1,1,17.307222592388992
183,183,1.4791305698106572,1.5750469105132958,1,1,15.936489042393525
184,184,9.217034837842025,8.890690298278866,1,1,21.66840538018333
185,185,6.786448580684741,2.530541678167546,1,1,19.07547607812836
186,186,6.510445387386829,0.0,1,N/A,17.86047917564949
187,187,4.089198858062662,1.9838993498137336,1,1,22.001192755151806
188,188,3.586245615074356,3.8492183874762698,1,1,18.832382136642515
189,189,8.55225218759521,0.8870275473163014,1,1,12.022625450514978
190,190,3.1731176250573,4.92814814418427,1,1,20.68496265424931
191,191,6.087692706896181,9.212191021527456,1,1,16.384725062852706
192,192,2.4405878321496233,3.0546585649969025,1,1,5.917870767017263
193,193,4.614405529540501,7.470009119980724,1,1,20.25759235035771
194,194,0.26572557313262024,0.0,1,N/A,17.16852406546687
195,195,7.221625802819599,0.0,1,N/A,20.817370884826396
196,196,2.241081703498949,0.0,1,N/A,12.455526731148872
197,197,3.779389074474979,8.894849613113424,1,1,16.10996559488386
198,198,4.075614790714716,6.9121167963029775,1,1,23.04620027829172
199,199,5.517811004387135,1.849088197995018,1,1,9.483066546197698
200,200,5.367897212123777,8.737506954698112,1,1,20.425969381221762
201,201,5.6872309318822065,9.389411110772393,1,1,21.349109955866755
202,202,1.0387199549000525,7.642897976999679,1,1,21.265104277603815
203,203,5.736307445691437,6.783577410299472,1,1,22.801437392094574
204,204,2.420528660106729,1.7201112135070484,1,1,17.664679223261878
205,205,8.48167091750399,0.0,1,N/A,18.891594174205938
206,206,4.305871522612573,8.217475707293056,1,1,19.264926964656805
207,207,1.154159895736675,9.938677531030697,1,1,11.899405490085945
208,208,5.615684893370817,3.217101686290781,1,1,11.9170457995289
209,209,6.566214978122088,7.51605336602549,1,1,15.523825211227283
210,210,5.746617747284829,9.34516109595657,1,1,19.936929680004113
211,211,5.955323789177259,3.042153717302832,1,1,10.678414672761603
212,212,7.322365475805316,9.692698232750557,1,1,17.782755440763335
213,213,0.28241112274935753,3.377635008341736,1,1,9.040620189091387
214,214,4.035385140002321,8.879605708294164,1,1,22.69796090757211
215,215,8.822001070519242,2.7281970456394156,1,1,23.99708173612936
216,216,4.135604746999789,1.966881581553831,1,1,6.729900292709411
217,217,7.709094191660727,6.486097922666487,1,1,21.159261403766923
218,218,0.12963922181203236,6.611588370533758,1,1,14.98802671844037
219,219,9.667021589318283,4.357356467642815,1,1,20.224813361637366
220,220,6.049527237511684,2.0895509309472637,1,1,20.34102954345724
221,221,3.1043233743389154,1.6269163064968828,1,1,23.43244106377149
222,222,7.97859914864981,2.3267964175303115,1,1,16.442739332422935
223,223,9.404378657731318,9.957208862630498,1,1,21.226312173591676
224,224,7.9067698781975455,0.0,1,N/A,20.311863526658712
225,225,5.986244017834558,5.5138695247954175,1,1,19.132383357492518
226,226,5.058436288951356,6.960609714037296,1,1,19.982103190226553
227,227,1.0697091403837244,2.6098845664660795,1,1,13.74054695069651
228,228,1.6994037398201256,5.138289991709031,1,1,7.6297418674346575
229,229,4.66587554913215,5.893351401706992,1,1,15.439702256613394
230,230,8.662210989987113,6.593030394643194,1,1,21.55751888670325
231,231,6.529696337799393,6.5544641266819355,1,1,23.691971253549966
232,232,7.3892730877840265,8.369654900965909,1,1,19.288226833684927
233,233,5.622012492024392,9.72875099812993,1,1,18.53427961724928
234,234,1.0270805290120821,7.552694515578958,1,1,9.296864474265446
235,235,7.834405581478143,1.2215347102343677,1,1,21.5896322722851
236,236,5.724921186791394,0.1163884964717099,1,1,7.6992046300319785
237,237,6.844515207204801,0.3559571392464622,1,1,14.122382688924748
238,238,1.3835326830018335,4.461779474668078,1,1,12.845993508861472
239,239,6.7909355889544365,1.963240300168233,1,1,20.453960121340543
240,240,1.0174410731079453,4.200704457774932,1,1,22.87765727848251
241,241,6.935102190398146,8.068260940836046,1,1,23.152522656700242
242,242,5.287008038623461,8.71712880267371,1,1,15.303036298704106
243,243,6.020207545196742,7.756853751805892,1,1,15.142061811093079
244,244,0.11471757962480345,9.964526616814467,1,1,16.38219282170097
245,245,0.3867313155267438,6.798363543775694,1,1,10.30215637965353
246,246,9.283684871634554,3.8494891449341773,1,1,22.359058755678944
247,247,8.406050451809046,0.0,1,N/A,20.305148963416737
248,248,8.019605826817921,9.132467688750136,1,1,22.240104203245647
249,249,6.590117513905637,5.809322534750151,1,1,13.356309783290163
250,250,1.0455436309560129,2.393367679229393,1,1,8.87147736036977
251,251,7.247003012506235,2.0467251373286786,1,1,20.36331471882146
252,252,6.6226531047564166,8.768460163874995,1,1,23.434706079415225
253,253,4.9710713263627895,5.014609497770069,1,1,20.445376766523836
254,254,3.338383935504483,0.0,1,N/A,12.831831293591716
255,255,4.884389408290232,9.528467374798188,1,1,16.932664562713814
256,256,7.398034996451224,0.7754257852284985,1,1,19.637972931161496
257,257,7.061789841364115,7.037001363181159,1,1,16.590248097568505
258,258,3.44576982268731,1.645013483832608,1,1,5.959588864021505
259,259,9.284275917118487,0.00016062227751745262,1,1,19.23132426626328
260,260,2.24090572813802,1.9996996364762987,1,1,9.265710028921694
261,261,8.542731678990252,9.110194816280249,1,1,23.927270117031693
262,262,7.612286994918468,0.0,1,N/A,21.688234944846116
263,263,6.440363019266543,6.239970806161441,1,1,19.379079362216004
264,264,5.193316117238509,0.73897183998334,1,1,12.72614390699934
265,265,6.592798233848045,1.224338207920238,1,1,15.771315487836326
266,266,1.5020424215576422,4.859106542978972,1,1,10.877914855844757
267,267,9.912464132432914,8.277182428888237,1,1,20.264610612335346
268,268,8.563707534337038,3.7408716725299818,1,1,20.667633362149324
269,269,1.9072674149346636,5.5948490644862545,1,1,15.747583119484863
270,270,8.676008408489672,0.8068338364264693,1,1,14.48773627722883
271,271,7.96078788008481,8.571098951829827,1,1,22.286488346662118
272,272,6.188344489303735,6.40770094420732,1,1,23.363244852855985
273,273,2.2995311093436666,4.532653919086298,1,1,22.645047323856204
274,274,8.535590138875516,2.176216325551843,1,1,16.015549728754973
275,275,3.9955556849640805,6.886444326789693,1,1,22.095857281062703
276,276,0.32945957258091574,8.465898501105354,1,1,15.724387491745485
277,277,0.7994363690735895,4.723029710554708,1,1,16.013880756051243
278,278,4.463620733581406,0.0,1,N/A,16.498865609624797
279,279,3.3388566491495677,8.315281274238272,1,1,22.860112265768542
280,280,3.872987844656296,7.280799517052686,1,1,11.26396972036462
281,281,3.7315221671783005,6.2143301018378665,1,1,17.668620856784738
282,282,7.035502466357805,9.335569188596834,1,1,21.129859821607475
283,283,9.131195776975185,0.733173589453443,1,1,12.790445374097335
284,284,2.4780521873408112,5.485137255479756,1,1,15.115851606277934
285,285,6.788358398878872,1.7375205219430123,1,1,22.24164009173175
286,286,6.140092970272184,9.286798671928587,1,1,16.023596773369313
287,287,8.04090192582324,0.0,1,N/A,12.364622229425189
288,288,7.491968314388387,7.2254681127692475,1,1,20.404476076180845
289,289,8.468172137879094,0.0,1,N/A,17.77475564726423
290,290,7.382483228932863,8.453877091325591,1,1,17.54271016439459
291,291,7.311671396120415,3.9660003548696876,1,1,18.478346589985087
292,292,0.5488673238932362,6.122466603411668,1,1,18.762946974914072
293,293,4.681214329774884,9.198047955169962,1,1,20.538707874741668
294,294,7.329653213753603,0.8419719338042841,1,1,23.700496870575343
295,295,0.9314814893254986,3.8145518278535997,1,1,15.539945353008022
296,296,7.9458128304530025,0.0,1,N/A,21.14465870664685
297,297,3.2293430438631567,2.952002304006732,1,1,22.74182962260324
298,298,4.341748994247057,4.546081181198776,1,1,14.042892353915807
299,299,5.138330563665903,6.213457362282898,1,1,13.321505529647629
300,300,0.9774194224028854,9.962515604441716,1,1,20.391087504477344
301,301,4.86820356892529,2.6166978522579223,1,1,19.30825506767595
302,302,7.050623129728098,0.2907463820389944,1,1,21.14521494115703
303,303,8.431536514715742,4.6593207806602,1,1,22.76710823909923
304,304,6.020447923222557,5.530203494077497,1,1,19.879113723194024
305,305,4.985022275104774,0.031249688532355435,1,1,6.745980447197855
306,306,4.811476541662051,3.7765380376653157,1,1,20.519842654838968
307,307,3.9424821515036856,7.932592872888584,1,1,19.299056168053298
