,Job ID,Stage-1 Processing Time,Stage-2 Processing Time,Stage-1 Machines,Stage-2 Machines,Due Time
1,1,7.340221013131568,0.0,1,N/A,17.863653450420593
2,2,4.258752514530971,4.030706097848262,1,1,14.189598039894255
3,3,2.5050538094517725,0.0,1,N/A,6.997827593747163
4,4,6.553702130913717,6.641707998655033,1,1,19.2334667529499
5,5,9.948463910602843,3.320295647149476,1,1,23.934355728594944
6,6,3.0176774626345795,8.187140220983874,1,1,21.481522313596546
7,7,4.370340348810014,5.851474399502284,1,1,11.198199343496057
8,8,4.531856790327491,2.9178882232547796,1,1,21.31012520900059
9,9,5.493525953230167,0.0,1,N/A,15.200208759605742
10,10,5.710963346521441,0.0,1,N/A,13.84505499169546
11,11,6.2460073329415735,0.0,1,N/A,22.137417647373358
12,12,4.617300245240027,5.252523086205719,1,1,12.131287632887336
13,13,5.559455263529126,0.0,1,N/A,9.257052176462869
14,14,2.4611113940515117,0.0,1,N/A,15.956782791375188
15,15,6.637650182087585,1.2540787283484112,1,1,9.83734471194212
16,16,7.971066364559981,5.115542073847488,1,1,16.57936288480894
17,17,0.3642846051149773,8.251851770507773,1,1,19.690766159629145
18,18,6.1562272389875865,3.312082664610594,1,1,21.990948892966422
19,19,9.374807662617949,7.947694646297364,1,1,18.26288303307297
20,20,8.510465626150252,0.2913466872533532,1,1,19.244948093192704
21,21,7.495955938712054,7.936323599878541,1,1,16.495847577583763
22,22,6.023760176995428,6.615499785288583,1,1,15.761990604405543
23,23,9.373680654126916,4.375920598310756,1,1,21.880701285486722
24,24,1.8691071196684084,0.6279790601360602,1,1,2.9072893366700794
25,25,2.6410467296850326,7.65026948542853,1,1,19.782523773068363
26,26,6.611973739398489,7.027376008534448,1,1,15.863404444463125
27,27,2.2439506258719257,0.8298947085536801,1,1,10.218792592614669
28,28,1.0533105396722087,1.008206546467889,1,1,6.994695475278312
29,29,9.305427188206295,4.498823990054333,1,1,20.38280650136553
30,30,8.842478536043572,0.0,1,N/A,18.5207564269404
31,31,3.2761269170416165,2.8012953740326196,1,1,18.324843765516015
32,32,2.217038063911011,0.9530219376335469,1,1,3.7217106040337677
33,33,3.364718923339738,4.468231420969966,1,1,8.208887443610513
34,34,3.0477911017329062,2.965924179416246,1,1,8.96574082505767
35,35,7.169767942782537,0.0,1,N/A,21.5180904203644
36,36,5.733628647262872,0.0,1,N/A,12.437618325618221
37,37,6.236772354767869,8.246533011538519,1,1,19.728495656297525
38,38,9.58288331277375,0.0,1,N/A,21.74494838477411
39,39,0.01835907899602529,0.0,1,N/A,2.8137473758647094
40,40,1.6061761278123876,7.3650804611488,1,1,18.71634960003
41,41,1.4946664464175197,0.0,1,N/A,22.107766162809753
42,42,1.9894338517685073,6.826814740404702,1,1,19.58296850143965
43,43,1.1978439895801085,5.661243802583929,1,1,20.48415069313401
44,44,1.29717825972682,3.2171885571999184,1,1,19.12707564246123
45,45,9.31220003262212,9.611756251785803,1,1,21.30623004429024
46,46,7.233753889225474,8.118102477239425,1,1,15.830957631552542
47,47,1.5785017998096451,6.435976651084594,1,1,21.082788568927164
48,48,9.081574593294812,8.072393001940203,1,1,21.271817006051247
49,49,6.73468486758482,1.525764819519242,1,1,13.518534449459807
50,50,3.980509174083149,5.550333777561497,1,1,22.349288314521317
51,51,5.421084511318352,3.6997439991679615,1,1,12.059500123520326
52,52,4.095722988583778,8.88430907662709,1,1,17.612637836037877
53,53,8.919902467336886,4.410231019317522,1,1,16.495029539250506
54,54,1.838897101934629,0.3782053551147113,1,1,4.962280625871712
55,55,0.49164598037032103,0.0,1,N/A,17.72392823653227
56,56,1.7557450184804968,2.8785383821179753,1,1,20.623869296515245
57,57,2.2558009198713513,3.823966727398498,1,1,21.233259316854046
58,58,8.913326075753089,0.0,1,N/A,9.813910760854766
59,59,6.805816912892533,0.0,1,N/A,23.842859383756696
60,60,7.451914315812199,6.491019383355426,1,1,22.20337974307776
61,61,8.413820772956486,9.887905812339305,1,1,22.567913414956774
62,62,1.5920718352274221,0.21073855779160655,1,1,7.032005087278423
63,63,5.793843381765851,1.2370046218854591,1,1,23.910059754075476
64,64,4.469999906928527,7.102409538643845,1,1,15.399486076529229
65,65,8.653699052330136,0.0,1,N/A,21.484681004308623
66,66,4.359108763557037,2.868024206378592,1,1,12.04433437284451
67,67,2.1439172791403505,6.058538553623221,1,1,18.432917061789567
68,68,6.715311422575723,0.0,1,N/A,16.251943911225332
69,69,8.45838980688335,0.0,1,N/A,21.02577199827161
70,70,7.902052961376354,9.780380365822978,1,1,20.410594498975456
71,71,3.3729619459744176,0.37828214955451744,1,1,6.872331023795074
72,72,3.8823994406825624,7.891806327905783,1,1,18.734885974562292
73,73,8.112503342987019,5.372825743700841,1,1,16.024480064731822
74,74,5.415405713211891,8.93103210390555,1,1,17.97318756525985
75,75,1.0380062598405526,2.9619522230810604,1,1,13.240031147892335
76,76,4.119686409587299,8.221123840098105,1,1,16.803755296925182
77,77,1.1488518984100815,6.053293821209652,1,1,12.944133010821748
78,78,8.820294565162376,1.6110013712620175,1,1,16.979461666558784
79,79,1.2811787781445738,0.32498254163337625,1,1,18.970563294820696
80,80,4.257442389517847,5.438665167620027,1,1,10.041113158608827
81,81,5.568575575300402,3.892326703847374,1,1,23.738270069549735
82,82,4.380332280333698,8.68753325774988,1,1,17.942277149503415
83,83,5.251685688634015,5.10531617654694,1,1,15.576674022577372
84,84,2.057045637378281,1.2824622539216657,1,1,11.542633694595581
85,85,3.1584176975369784,7.675490179170474,1,1,11.086098863392458
86,86,8.397582245749147,5.100600425224199,1,1,19.617300992550376
87,87,2.246620150299703,9.597397410826915,1,1,19.09738959042666
88,88,0.9439357916830848,0.0,1,N/A,9.563835496995479
89,89,8.749927182978896,0.10770428952517563,1,1,12.473994731531937
90,90,4.676675637996054,7.391034266393646,1,1,15.37789752137143
91,91,6.494475349263688,9.846961521844802,1,1,21.509052502335162
92,92,6.237100063263493,8.782516272909199,1,1,23.361030684081896
93,93,9.484233481757197,9.353783874292388,1,1,20.90739033283438
94,94,0.1313471786237841,7.818127470300167,1,1,14.741132994761063
95,95,3.9626772561901245,3.3510347046275015,1,1,23.511036174634434
96,96,9.768816768302235,9.654548417290755,1,1,21.942373015773093
97,97,9.941119598221423,0.3862405340604502,1,1,11.294713906423805
98,98,3.2911469389163495,6.626686665756923,1,1,17.677149665924652
99,99,1.6091367788414601,2.0361537357971606,1,1,5.517738052344344
100,100,4.627762097250726,1.5157817144469288,1,1,23.936019334471354
101,101,1.935423274224829,0.0,1,N/A,21.011210735926664
102,102,8.611445585213561,2.8594691805821437,1,1,16.994111068668403
103,103,2.6403089908886734,2.5509095254474214,1,1,17.069111148745254
104,104,6.085154233841729,5.686941744951966,1,1,14.730705339188765
105,105,0.6623152325253112,4.401024714505391,1,1,22.47557362942566
106,106,7.00643313616837,5.595890549602904,1,1,19.663173897137522
107,107,1.105938040426826,3.992535811405645,1,1,14.507794329004492
108,108,4.782334281139381,4.976065673471891,1,1,13.097145518907784
109,109,4.822943200155883,0.0,1,N/A,21.480926790124357
110,110,9.17801620924197,6.663374669600422,1,1,22.228563129665538
111,111,4.396893692662421,2.04993422993754,1,1,20.03578010776871
112,112,9.641562271359259,6.737045174425766,1,1,21.353753425905285
113,113,0.10842949526666867,9.88202549671006,1,1,12.636818269277734
114,114,5.533206590152785,0.0,1,N/A,15.385607721714972
115,115,5.544998575736148,9.27892707599122,1,1,23.105135748817986
116,116,9.466374694603035,6.388983235509411,1,1,21.296015669496896
117,117,3.0538520192660212,2.3856543611621985,1,1,15.51414210033793
118,118,1.7089805519362689,0.1313152365360104,1,1,9.82236638834056
119,119,7.528504410705786,4.616225921482306,1,1,16.655922920376838
120,120,5.341916660007248,6.435247108258996,1,1,13.813103561546125
121,121,3.9184772599692588,6.3900273248261685,1,1,17.717786127628933
122,122,7.444128684500381,9.317900680809228,1,1,20.85486534560864
123,123,3.4596667943410306,7.846175171634735,1,1,12.454626959915242
124,124,4.228154050914341,0.0,1,N/A,20.41231510473584
125,125,2.600237437692102,7.1626924270198655,1,1,18.797649579630274
126,126,2.919891155473928,1.5232259066703924,1,1,20.52864461556499
127,127,5.741245176985508,0.0,1,N/A,19.491640791440922
128,128,4.419196848996504,1.0972156208537298,1,1,20.648583739243335
129,129,1.0478331633208804,8.492700374855103,1,1,13.41662718738176
130,130,7.699580917872456,2.4450269930261648,1,1,20.853381180509977
131,131,3.6193099669289506,7.0957055075455,1,1,18.414933474814003
132,132,8.823877832720218,2.282078715338993,1,1,18.36911100703116
133,133,4.166092047022342,0.7434327197694302,1,1,14.795343255405516
134,134,4.74858702440229,9.708557865926927,1,1,16.584400365352554
135,135,1.9400079459204589,4.4270927414224595,1,1,11.985286911825085
136,136,3.731510487162759,0.0,1,N/A,13.457422569455142
137,137,5.185289873200844,2.6007047109459194,1,1,19.458955349672948
138,138,2.647297633098148,0.0,1,N/A,8.646090605657822
139,139,7.786838855944738,1.5105504104938217,1,1,22.08736250310821
140,140,7.075275820890239,3.170540253858898,1,1,16.171644328691396
141,141,4.402631928986862,6.693281867309045,1,1,16.432997988329223
142,142,1.1567961565675777,5.188146513997883,1,1,17.27059288474365
143,143,3.2097837268823515,3.7693250980009885,1,1,20.23512934286801
144,144,7.352230080208785,9.24424358412537,1,1,19.37820290664495
145,145,5.601152489895994,0.0,1,N/A,11.832355522987658
146,146,4.994599428295665,0.0,1,N/A,14.591723851638502
147,147,7.407973924978127,0.8777246434144426,1,1,19.698270036821064
148,148,9.744955168804134,9.474739009971096,1,1,23.600341982715676
149,149,5.660780800621504,1.4906733603279732,1,1,16.47930310666976
150,150,7.152730861908734,4.690595775535856,1,1,15.449513317731466
151,151,5.045419072432365,6.538568532585083,1,1,23.854597777826704
152,152,0.21009983737179772,7.603713103268406,1,1,22.143816816164293
153,153,8.810489513767159,0.0,1,N/A,21.199823879550404
154,154,0.42524596587483754,0.0,1,N/A,4.567045127450049
155,155,9.644954487792806,4.600385293109834,1,1,17.109487950405182
156,156,3.1810426892444132,1.8362996374614127,1,1,14.856851319240556
157,157,2.581360115281993,3.7709771255797464,1,1,15.92242409687547
158,158,0.8226107665704407,4.785161381066912,1,1,8.759608500257182
159,159,9.47314725718406,8.653088129011646,1,1,20.397057641778783
160,160,9.032944012856714,9.978851413312553,1,1,19.989483180186724
161,161,6.936380332186781,4.273684299671709,1,1,23.55407828979367
162,162,9.718233683515292,7.237774070860645,1,1,23.720806375286784
163,163,6.068655220600327,9.282990997215533,1,1,19.69080951109815
164,164,1.3416761418676204,3.643718770652459,1,1,14.119172460260284
165,165,0.21473023596617402,7.725608676770413,1,1,18.463017450450238
166,166,3.6703851367095863,1.7940420382553723,1,1,13.091536973290667
167,167,5.298266695090504,9.356765524726578,1,1,17.041899491469717
168,168,9.937034771659123,0.0,1,N/A,21.180698162290582
169,169,3.308435981987045,9.0139924839845,1,1,18.05897865541036
170,170,0.5986086206642927,0.45757258340027307,1,1,10.612803530547815
171,171,7.946218318702297,0.0,1,N/A,14.822495061843952
172,172,7.431264111320789,3.837057349253122,1,1,23.54356576674144
173,173,8.563425474645946,4.273372657793473,1,1,22.50786096769741
174,174,8.367232560580476,7.1038031479043005,1,1,23.045700246617287
175,175,4.285314439821759,3.3190966163522893,1,1,22.17820231755363
176,176,9.891948074178874,1.2710498481771337,1,1,18.83169210503727
177,177,6.359471899848136,3.311691670138752,1,1,17.6148102273437
178,178,7.550410739371573,5.925070152407262,1,1,14.32090525791319
179,179,9.40154024000801,1.021821135412927,1,1,19.103383528202677
180,180,1.9836431936708043,7.343834809988216,1,1,21.605887631713035
181,181,2.6637859810223317,4.996470016546196,1,1,22.575447232212888
182,182,1.354921459761329,9.851935615956135,1,1,14.279591128899952
183,183,0.6905993165531377,7.226629997131489,1,1,15.271421540805889
184,184,0.17910683321391674,0.0,1,N/A,14.656092007802203
185,185,6.476114623045875,9.620412190615795,1,1,23.978133504330636
186,186,6.0216845261491505,0.9245482799411986,1,1,14.131525783532656
187,187,1.7019323030971234,7.448159269141524,1,1,12.306993946500363
188,188,9.81770210614512,0.0,1,N/A,17.026382739086984
189,189,2.07544828564739,5.937786402484246,1,1,23.881771108113433
190,190,2.761245665045704,4.279796591814227,1,1,17.27325061630179
191,191,6.2492903787098975,9.73199152240759,1,1,21.124500785902597
192,192,0.30540282947858266,0.0,1,N/A,19.600720848888827
193,193,9.151759715080713,1.7051094781112497,1,1,12.15777477920643
194,194,6.283930720769093,4.8885269279122054,1,1,23.363859957911792
195,195,7.302370759450567,3.027379456634608,1,1,17.887405958664818
196,196,2.3504754433485497,0.0,1,N/A,18.668975032216675
197,197,0.3629855523249026,0.0,1,N/A,14.98328186692519
198,198,1.350967615806694,9.58493007661622,1,1,17.681549689788135
199,199,3.1785081289553307,4.684484503407145,1,1,17.58159906978928
200,200,0.7729845187645412,0.07904192691040479,1,1,22.879720408842353
201,201,9.20567474295827,4.424936722210822,1,1,21.327894314058632
202,202,3.2317421848654315,6.409958948495103,1,1,18.067671666824992
203,203,9.950126872276426,2.032840278062178,1,1,14.378537782233245
204,204,5.680094764601071,4.300127066445062,1,1,20.305379021580286
205,205,1.2826878410717502,2.5036209056818794,1,1,9.15429807162013
206,206,7.014247741190535,0.0,1,N/A,18.653217858705933
207,207,1.6105771654305479,4.925457093714574,1,1,9.575418419142911
208,208,6.407511981281399,0.0,1,N/A,16.56607143875719
209,209,5.91108819555521,9.779633664109738,1,1,17.32324787910023
210,210,0.20614239418934144,6.945799045691675,1,1,13.348272462035258
211,211,1.7536213646142063,2.987640114941107,1,1,12.416824706156179
212,212,0.2518079770932635,8.192550606058248,1,1,13.937369157347433
213,213,0.24558416774653424,6.594852000765261,1,1,20.936118813290427
214,214,8.518551879877169,7.664314133385064,1,1,19.18669751483512
215,215,3.108819030447619,9.287338107883254,1,1,13.824181174763044
216,216,8.05221548511126,1.675228651059265,1,1,9.809127303921331
217,217,2.488054773873669,3.466960168513036,1,1,9.667572070858093
218,218,4.3997338204980965,8.30789912448465,1,1,14.366549837730995
219,219,2.02773076674174,0.9135405620135228,1,1,14.056405963932335
220,220,5.857903375040129,4.864034702204077,1,1,15.652613227497682
221,221,1.143475059688479,5.31021376151068,1,1,20.12314894546394
222,222,7.813144518671443,8.239782127565213,1,1,20.93665964634896
223,223,0.05010293474255856,5.482819960385747,1,1,9.691639040896405
224,224,9.814092264431423,0.0,1,N/A,20.945353182358218
225,225,8.754879418915948,2.4729416620494726,1,1,21.135943718067274
226,226,2.788077138184959,0.0,1,N/A,11.044313338511287
227,227,4.273619551414819,3.2612658137622397,1,1,9.712105954542771
228,228,9.241084830431479,0.0,1,N/A,20.1531444130419
229,229,2.1115079996220274,0.0,1,N/A,6.340295644528515
230,230,3.8088327416740464,0.7843170397841859,1,1,13.025874394648163
231,231,0.8458159839323254,0.0,1,N/A,5.583871653943039
232,232,3.442943331464019,0.0,1,N/A,23.48520815098567
233,233,4.347296083544313,0.0,1,N/A,15.60711533679113
234,234,4.5970044671031305,5.6750718039675725,1,1,14.694807087358264
235,235,9.133691940586182,6.380694912282174,1,1,15.749013037572993
236,236,4.390846877442928,3.155138106690536,1,1,13.076106941279024
237,237,9.597487886299946,0.0,1,N/A,14.169139926246862
238,238,3.394276898378564,8.663193361887837,1,1,12.994784357930412
239,239,2.5725361678277436,8.60491048733725,1,1,17.437089589168114
240,240,6.6617179388838,0.7843634175712877,1,1,15.777033327761472
241,241,1.8822491362686289,5.6453049545944465,1,1,19.655805438316325
242,242,8.334902004097321,3.9558596276886493,1,1,14.911425132593733
243,243,2.742040766253634,7.064573615820534,1,1,17.2204136610171
244,244,0.817001412600662,2.8351291908394494,1,1,5.9852465466992975
245,245,4.42417399773537,6.182809928965235,1,1,16.06434954354891
246,246,2.586427079096217,2.918541202333559,1,1,23.109317001814055
247,247,9.341390471208756,9.186899323219949,1,1,20.696269840881225
248,248,0.5954534732039374,8.726073549114016,1,1,19.72022816602214
249,249,9.028864504081305,8.165889084728216,1,1,20.181099752577335
250,250,7.097176327949052,0.9816855678365244,1,1,14.78026055542277
251,251,7.661756280532966,2.3677836389023077,1,1,22.96317045652851
252,252,8.400538769187643,5.5308721984297735,1,1,15.651310350091892
253,253,8.09510577085127,0.0,1,N/A,22.069028221263217
254,254,3.028247364717176,3.3350301732641063,1,1,8.447538277043135
255,255,2.365165752534375,4.48560810464693,1,1,15.405218702296562
256,256,9.557250241898082,2.4043390017150856,1,1,16.224953526066663
257,257,7.426783782207501,3.0973434091007643,1,1,21.60303993988321
258,258,4.708492534547533,9.029166742830405,1,1,22.120223148929274
259,259,1.3853433328223874,0.5254328022113519,1,1,10.386301849594505
260,260,8.09146547810348,8.128218267549178,1,1,18.764522384809126
261,261,6.5386270955060946,9.45870390264778,1,1,22.18007815431732
262,262,1.0351973772315937,0.0,1,N/A,19.022671416858586
263,263,3.9280335069375716,7.365678513799604,1,1,23.975362699538174
264,264,6.53033862731792,8.983523017587471,1,1,20.431241540493275
265,265,1.5951000107481406,3.8477679445069146,1,1,11.144201718836438
266,266,9.223378589674827,6.111911085371125,1,1,22.287436309965948
267,267,1.3935355323675946,6.428411448945784,1,1,15.923209582314097
268,268,0.8028588189424035,9.232351629596092,1,1,18.73593633336467
269,269,0.4031769083963732,6.959056610445722,1,1,19.349636327381578
270,270,6.6774193691726245,5.566843564475664,1,1,22.38101479913768
271,271,0.3818940395534187,0.0,1,N/A,14.909348119266031
272,272,1.0456778120341947,9.004789041696116,1,1,10.573728736473456
273,273,3.6349258070325217,0.0,1,N/A,13.935689443510839
274,274,2.108087003760301,9.13841705655065,1,1,16.428774462502048
275,275,7.450717766068278,1.9919386105410675,1,1,18.40782867342408
276,276,6.095515547567617,8.037212319334575,1,1,16.70718990307943
277,277,2.898909340211647,0.27995256054006323,1,1,6.42777957456641
278,278,0.3842508921153487,0.022219944015163806,1,1,15.933729443434842
279,279,3.4648792922700977,6.808615959510069,1,1,22.764493656492633
280,280,3.5092753666612353,6.890644578397064,1,1,22.41642573222518
281,281,6.7850183295905335,1.1063129204042732,1,1,20.96773310948795
282,282,1.034985551872023,0.13387432220201667,1,1,12.49516287270915
283,283,9.14732798610292,3.9465090675124426,1,1,15.651406970078709
284,284,8.70671527772214,9.599699212170195,1,1,22.767879629790894
285,285,7.690435435141611,0.17222327822606243,1,1,16.948150390851648
286,286,9.524411156456114,8.932940726458709,1,1,22.209165192860624
287,287,1.6536110944126259,9.21314803392953,1,1,19.226721063789277
288,288,3.3108921732522303,0.0,1,N/A,14.163331426093073
289,289,3.302656444459525,0.0,1,N/A,8.51248169805195
290,290,0.9498824833807429,0.0,1,N/A,17.89750264089755
291,291,3.7269233208831345,4.698321066974479,1,1,18.32393125755617
292,292,7.8361683980777075,0.0,1,N/A,23.41944892797583
293,293,8.948738795607454,0.0,1,N/A,20.986557043114004
294,294,0.9948735978187406,0.0,1,N/A,13.640986242818375
295,295,4.217305540901517,6.6968378247357405,1,1,14.179544363331363
296,296,0.5403712171213426,9.48479306286184,1,1,23.53675959585707
297,297,1.4602907054124048,2.419253067631073,1,1,11.65162446526416
298,298,9.556893675914559,9.296127885053581,1,1,19.525147598760956
299,299,7.709793693098072,2.7409638011940682,1,1,10.4982867957925
300,300,4.441140827320855,0.8455766752651772,1,1,16.480640923285243
301,301,8.697806554030723,0.0,1,N/A,23.841265832546227
302,302,8.672503607958383,0.0,1,N/A,21.603618327666496
303,303,8.81555657055838,2.740043105327091,1,1,13.358589910624467
304,304,1.5821836397483158,0.0,1,N/A,18.137466051371504
305,305,6.914309452041984,3.2482244103956637,1,1,13.033522573952709
306,306,9.357283255200024,0.0,1,N/A,23.838472618966843
307,307,0.5620151833414155,9.083758966362986,1,1,16.573002110085774
308,308,3.941311498815888,0.3039218284806555,1,1,11.960670891438781
309,309,0.8154022367921354,9.44771563018102,1,1,20.711990662412187
310,310,5.169388158106657,0.7036896959367,1,1,16.475373867828736
